Timestamp,A0,A1,A2,A3,A4
0.00013303756713867188,2875.0,2157.0,1251.0,4095.0,4095.0
0.006082057952880859,2179.0,2731.0,1287.0,4095.0,1051.0
0.006206035614013672,2750.0,2710.0,1360.0,4095.0,2522.0
0.011079072952270508,2898.0,2689.0,1360.0,4095.0,2499.0
0.011213064193725586,2522.0,2627.0,1466.0,4095.0,1834.0
0.019078969955444336,2497.0,2765.0,1962.0,4095.0,1923.0
0.019334077835083008,2784.0,2741.0,1854.0,4095.0,2419.0
0.02226996421813965,2901.0,2689.0,1872.0,4095.0,2179.0
0.022390127182006836,2624.0,2633.0,1838.0,4095.0,1680.0
0.028513193130493164,2841.0,2544.0,1776.0,4095.0,797.0
0.02887725830078125,2925.0,2400.0,686.0,4095.0,2406.0
0.033408164978027344,2915.0,2693.0,927.0,4095.0,1921.0
0.033576011657714844,2670.0,2625.0,883.0,4095.0,1813.0
0.038802146911621094,2861.0,2506.0,919.0,4095.0,607.0
0.03890419006347656,2402.0,2141.0,1063.0,4095.0,1071.0
0.045133113861083984,2754.0,2816.0,1062.0,4095.0,2203.0
0.045237064361572266,2889.0,2781.0,639.0,4095.0,1449.0
0.05106997489929199,2891.0,2452.0,1801.0,4095.0,592.0
0.05131816864013672,2391.0,2826.0,1755.0,4095.0,635.0
0.05585002899169922,2778.0,2843.0,1781.0,4095.0,569.0
0.055953025817871094,2897.0,2827.0,1776.0,4095.0,1914.0
0.06081104278564453,2555.0,2797.0,1783.0,4095.0,4095.0
0.06090712547302246,2800.0,3024.0,737.0,4095.0,626.0
0.06674408912658691,2785.0,3005.0,908.0,4095.0,3243.0
0.06684207916259766,2917.0,2976.0,882.0,4095.0,4095.0
0.07165098190307617,2622.0,2921.0,858.0,4095.0,2864.0
0.07174301147460938,2848.0,2871.0,853.0,4095.0,641.0
0.07775592803955078,2928.0,2767.0,963.0,4095.0,1267.0
0.07786703109741211,2697.0,2378.0,1344.0,4095.0,917.0
0.08287286758422852,2682.0,2953.0,1383.0,4095.0,1410.0
0.08298611640930176,2880.0,2862.0,1397.0,4095.0,4095.0
0.08882808685302734,2928.0,2747.0,1471.0,4095.0,2721.0
0.08894014358520508,2731.0,2322.0,1607.0,4095.0,1187.0
0.09491109848022461,2883.0,3062.0,1615.0,4095.0,2805.0
0.09502124786376953,2883.0,2823.0,1783.0,4095.0,1535.0
0.09971308708190918,2145.0,2656.0,1752.0,4095.0,4095.0
0.09981203079223633,2746.0,3071.0,777.0,4095.0,1381.0
0.10570502281188965,2903.0,3059.0,624.0,4095.0,2559.0
0.10580587387084961,2531.0,3037.0,605.0,4095.0,1503.0
0.11077404022216797,2800.0,2974.0,625.0,4095.0,1093.0
0.1108849048614502,2800.0,3063.0,1123.0,4095.0,2679.0
0.11678004264831543,2939.0,3041.0,1230.0,4095.0,2640.0
0.1168971061706543,2636.0,2966.0,1242.0,4095.0,1415.0
0.12173604965209961,2860.0,2926.0,1168.0,4095.0,944.0
0.1218421459197998,2922.0,2815.0,1155.0,4095.0,1392.0
0.1278531551361084,2719.0,2649.0,654.0,4095.0,1989.0
0.12798500061035156,2703.0,2921.0,1863.0,4095.0,1089.0
0.13271307945251465,2886.0,2835.0,1767.0,4095.0,1136.0
0.13282322883605957,2102.0,2678.0,1791.0,4095.0,1721.0
0.13873004913330078,2753.0,3076.0,1808.0,4095.0,2623.0
0.13884806632995605,2901.0,3056.0,1874.0,4095.0,3941.0
0.14707303047180176,2538.0,2902.0,1059.0,4095.0,1310.0
0.14719796180725098,2487.0,2386.0,848.0,4095.0,1465.0
0.14976906776428223,2800.0,3067.0,792.0,4095.0,2374.0
0.14988493919372559,2919.0,3042.0,944.0,4095.0,4095.0
0.14999794960021973,2627.0,3021.0,961.0,4095.0,2951.0
0.15583491325378418,2847.0,2927.0,924.0,4095.0,720.0
0.15595102310180664,2825.0,3053.0,1513.0,4095.0,806.0
0.16082119941711426,2951.0,3025.0,1650.0,4095.0,848.0
0.16094708442687988,2687.0,2957.0,1669.0,4095.0,1105.0
0.16700100898742676,2850.0,2883.0,1697.0,4095.0,4095.0
0.1671450138092041,2929.0,2790.0,1773.0,4095.0,4095.0
0.17176508903503418,2743.0,2549.0,1743.0,4095.0,1358.0
0.1718900203704834,2737.0,2896.0,679.0,4095.0,532.0
0.1779019832611084,2886.0,2832.0,624.0,4095.0,2435.0
0.17803192138671875,2201.0,2699.0,607.0,4095.0,4095.0
0.18279004096984863,2806.0,2203.0,621.0,4095.0,1248.0
0.18291807174682617,2906.0,3041.0,639.0,4095.0,1075.0
0.18885207176208496,2555.0,3007.0,657.0,4095.0,562.0
0.18899106979370117,2514.0,2350.0,1047.0,4095.0,4095.0
0.19480514526367188,2784.0,3025.0,1159.0,4095.0,1664.0
0.19493889808654785,2918.0,3024.0,1201.0,4095.0,1535.0
0.19983291625976562,2631.0,2982.0,1201.0,4095.0,1966.0
0.20001220703125,2847.0,2902.0,1313.0,4095.0,2007.0
0.20580792427062988,2977.0,2827.0,779.0,4095.0,811.0
0.20595216751098633,2896.0,2974.0,1678.0,4095.0,2512.0
0.21080708503723145,2679.0,2889.0,1804.0,4095.0,1799.0
0.21094703674316406,2859.0,2842.0,1854.0,4095.0,1502.0
0.2167210578918457,2028.0,2719.0,1830.0,4095.0,1410.0
0.21685409545898438,2714.0,2305.0,1844.0,4095.0,2054.0
0.22172188758850098,2875.0,2895.0,833.0,4095.0,1735.0
0.2218461036682129,2857.0,2768.0,748.0,4095.0,1142.0
0.22780799865722656,2405.0,2608.0,861.0,4095.0,1295.0
0.22796392440795898,2742.0,3001.0,814.0,4095.0,2034.0
0.23281383514404297,2875.0,2993.0,814.0,4095.0,1553.0
0.2329730987548828,2551.0,2975.0,1107.0,4095.0,4095.0
0.23877692222595215,2529.0,2480.0,1586.0,4095.0,1765.0
0.2389359474182129,2768.0,2989.0,1567.0,4095.0,1719.0
0.2448122501373291,2877.0,2960.0,1616.0,4095.0,625.0
0.24497008323669434,2629.0,2935.0,1637.0,4095.0,611.0
0.2497870922088623,2798.0,2834.0,1751.0,4095.0,657.0
0.24994397163391113,2895.0,2781.0,1757.0,4095.0,1648.0
0.2558150291442871,2882.0,2928.0,759.0,4095.0,807.0
0.2559828758239746,2651.0,2858.0,864.0,4095.0,1216.0
0.26079297065734863,2823.0,2791.0,1077.0,4095.0,4095.0
0.2609539031982422,2047.0,2689.0,1153.0,4095.0,2583.0
0.26682496070861816,2719.0,2467.0,1232.0,4095.0,762.0
0.26703715324401855,2858.0,2939.0,1253.0,4095.0,1296.0
0.27175402641296387,2835.0,2750.0,1854.0,4095.0,2559.0
0.2719252109527588,2421.0,2638.0,1884.0,4095.0,710.0
0.2778480052947998,2734.0,2321.0,1902.0,4095.0,2026.0
0.27804088592529297,2847.0,2928.0,1829.0,4095.0,4095.0
0.2828519344329834,2549.0,2911.0,1830.0,4095.0,1093.0
0.2830159664154053,2763.0,2691.0,810.0,4095.0,1252.0
0.28884220123291016,2773.0,2071.0,677.0,4095.0,2420.0
0.28901004791259766,2855.0,2900.0,695.0,4095.0,2400.0
0.2891721725463867,2625.0,2869.0,720.0,4095.0,1659.0
0.29497599601745605,2813.0,2849.0,731.0,4095.0,1683.0
0.2951650619506836,2288.0,2763.0,816.0,4095.0,1409.0
0.29998111724853516,2688.0,2883.0,1421.0,4095.0,1442.0
0.30019426345825195,2682.0,2839.0,1451.0,4095.0,1680.0
0.3060472011566162,2832.0,2769.0,1493.0,4095.0,1301.0
0.3062169551849365,2395.0,2703.0,1760.0,4095.0,1483.0
0.3109259605407715,2714.0,2608.0,1742.0,4095.0,2132.0
0.3111271858215332,2843.0,2145.0,1794.0,4095.0,1535.0
0.3170959949493408,2819.0,2738.0,688.0,4095.0,1150.0
0.3172769546508789,2511.0,2647.0,593.0,4095.0,1671.0
0.32192397117614746,2766.0,2511.0,617.0,4095.0,2416.0
0.3221111297607422,2842.0,2876.0,644.0,4095.0,2335.0
0.32796812057495117,2605.0,2883.0,645.0,4095.0,669.0
0.32817912101745605,2787.0,2859.0,659.0,4095.0,1648.0
0.332988977432251,2775.0,2293.0,1631.0,4095.0,1265.0
0.33319520950317383,2863.0,2869.0,1722.0,4095.0,1132.0
0.3389310836791992,2587.0,2853.0,1808.0,4095.0,2209.0
0.3391289710998535,2800.0,2815.0,1887.0,4095.0,4095.0
0.34496402740478516,2084.0,2723.0,1837.0,4095.0,1070.0
0.3451709747314453,2687.0,2670.0,1519.0,4095.0,2805.0
0.35006022453308105,2647.0,2834.0,816.0,4095.0,755.0
0.350269079208374,2832.0,2796.0,607.0,4095.0,677.0
0.35593605041503906,2499.0,2695.0,658.0,4095.0,611.0
0.35613012313842773,2735.0,2619.0,688.0,4095.0,4095.0
0.3608841896057129,2842.0,2497.0,734.0,4095.0,2539.0
0.3610990047454834,2588.0,2864.0,1776.0,4095.0,732.0
0.36696720123291016,2559.0,2660.0,1423.0,4095.0,4095.0
0.3671879768371582,2768.0,2545.0,1446.0,4095.0,4095.0
0.3718101978302002,2833.0,2278.0,1331.0,4095.0,1492.0
0.3720071315765381,2607.0,2815.0,1362.0,4095.0,2128.0
0.37793493270874023,2794.0,2818.0,1337.0,4095.0,1780.0
0.3781561851501465,2027.0,2047.0,1721.0,4095.0,4095.0
0.38303303718566895,2155.0,2833.0,1792.0,4095.0,1736.0
0.3832540512084961,2666.0,2827.0,1927.0,4095.0,1858.0
0.3889191150665283,2805.0,2801.0,1893.0,4095.0,1582.0
0.3891291618347168,2435.0,2741.0,1897.0,4095.0,1407.0
0.3948979377746582,2716.0,2672.0,1922.0,4095.0,2160.0
0.39510607719421387,2695.0,2796.0,782.0,4095.0,1777.0
0.39994096755981445,2784.0,2759.0,805.0,4095.0,1315.0
0.4001500606536865,2523.0,2674.0,811.0,4095.0,1699.0
0.4059929847717285,2754.0,2583.0,1114.0,4095.0,1952.0
0.40619611740112305,2832.0,2443.0,1107.0,4095.0,867.0
0.41081881523132324,2609.0,2139.0,1011.0,4095.0,1185.0
0.4110422134399414,2607.0,2625.0,1770.0,4095.0,1499.0
0.4168710708618164,2790.0,2519.0,1741.0,4095.0,2105.0
0.41708803176879883,2031.0,2187.0,1740.0,4095.0,2492.0
0.4218902587890625,2670.0,2800.0,1783.0,4095.0,2017.0
0.4220881462097168,2789.0,2782.0,1754.0,4095.0,1435.0
0.4278109073638916,2399.0,2717.0,1577.0,4095.0,1439.0
0.4280369281768799,2403.0,2210.0,764.0,4095.0,843.0
0.43282222747802734,2702.0,2783.0,855.0,4095.0,615.0
0.43303728103637695,2814.0,2753.0,841.0,4095.0,4095.0
0.4388282299041748,2525.0,2718.0,930.0,4095.0,4095.0
0.43903613090515137,2747.0,2628.0,1090.0,4095.0,891.0
0.4449610710144043,2791.0,2768.0,1700.0,4095.0,4095.0
0.44515109062194824,2805.0,2717.0,1638.0,4095.0,695.0
0.44983625411987305,2597.0,2635.0,1607.0,4095.0,594.0
0.45003604888916016,2768.0,2559.0,1632.0,4095.0,4095.0
0.45572900772094727,2514.0,2438.0,1593.0,4095.0,4095.0
0.4559040069580078,2640.0,1947.0,1648.0,4095.0,1703.0
0.45606422424316406,2655.0,2608.0,606.0,4095.0,4095.0
0.4609410762786865,2793.0,2535.0,624.0,4095.0,727.0
0.46110010147094727,2315.0,2416.0,644.0,4095.0,2703.0
0.4670600891113281,2671.0,2722.0,688.0,4095.0,1642.0
0.46729302406311035,2811.0,2750.0,682.0,4095.0,2321.0
0.4719240665435791,2479.0,2735.0,799.0,4095.0,2951.0
0.472121000289917,2496.0,1916.0,1130.0,4095.0,1880.0
0.4779541492462158,2689.0,2753.0,1183.0,4095.0,2018.0
0.4781789779663086,2850.0,2731.0,1271.0,4095.0,1987.0
0.48292112350463867,2558.0,2666.0,1301.0,4095.0,1510.0
0.48311519622802734,2798.0,2606.0,1403.0,4095.0,2111.0
0.4890100955963135,2816.0,2540.0,877.0,4095.0,2137.0
0.48925185203552246,2815.0,2702.0,1741.0,4095.0,1733.0
0.49498915672302246,2603.0,2587.0,1727.0,4095.0,1330.0
0.4952981472015381,2750.0,2537.0,1887.0,4095.0,1731.0
0.4999971389770508,2227.0,2410.0,1826.0,4095.0,2208.0
0.5002052783966064,2633.0,1897.0,1767.0,4095.0,1872.0
0.505944013595581,2778.0,2693.0,1535.0,4095.0,805.0
0.5061788558959961,2777.0,2421.0,796.0,4095.0,1985.0
0.510936975479126,2375.0,1913.0,783.0,4095.0,2096.0
0.5111761093139648,2665.0,2691.0,959.0,4095.0,1455.0
0.5171148777008057,2791.0,2665.0,959.0,4095.0,2590.0
0.5173652172088623,2534.0,2653.0,1022.0,4095.0,4095.0
0.5218231678009033,2486.0,2708.0,1697.0,4095.0,2736.0
0.522071123123169,2706.0,2693.0,1590.0,4095.0,3475.0
0.5278811454772949,2783.0,2643.0,1645.0,4095.0,4095.0
0.5281341075897217,2559.0,2615.0,1535.0,4095.0,935.0
0.5330541133880615,2736.0,2540.0,1535.0,4095.0,779.0
0.5332980155944824,2191.0,2435.0,1584.0,4095.0,4095.0
0.5389740467071533,2781.0,2657.0,814.0,4095.0,717.0
0.5392131805419922,2592.0,2559.0,1088.0,4095.0,657.0
0.5448908805847168,2739.0,2495.0,1155.0,4095.0,4095.0
0.5451531410217285,2115.0,2382.0,1190.0,4095.0,4095.0
0.5499391555786133,2628.0,1950.0,1424.0,4095.0,839.0
0.5501809120178223,2755.0,2701.0,1302.0,4095.0,4095.0
0.5559041500091553,2752.0,2443.0,1619.0,4095.0,689.0
0.5561559200286865,2385.0,2273.0,1764.0,4095.0,4095.0
0.5608820915222168,2638.0,2687.0,1698.0,4095.0,1687.0
0.5611600875854492,2762.0,2672.0,1735.0,4095.0,2160.0
0.5669441223144531,2467.0,2647.0,1697.0,4095.0,2023.0
0.5671918392181396,2693.0,2638.0,1635.0,4095.0,1762.0
0.5719881057739258,2690.0,2686.0,831.0,4095.0,1829.0
0.5722389221191406,2768.0,2646.0,916.0,4095.0,2160.0
0.5830831527709961,2503.0,2629.0,1090.0,4095.0,1792.0
0.5833292007446289,2711.0,2541.0,960.0,4095.0,1791.0
0.5835311412811279,1936.0,2458.0,927.0,4095.0,779.0
0.5837461948394775,1886.0,2638.0,1673.0,4095.0,2128.0
0.5894491672515869,2582.0,2591.0,1748.0,4095.0,1430.0
0.5895900726318359,2721.0,2515.0,1694.0,4095.0,1888.0
0.5952231884002686,2303.0,2422.0,1681.0,4095.0,774.0
0.5953638553619385,2618.0,2293.0,1734.0,4095.0,1325.0
0.6003439426422119,2736.0,2556.0,1745.0,4095.0,1555.0
0.6004750728607178,2727.0,2483.0,613.0,4095.0,1553.0
0.6060760021209717,2444.0,2370.0,629.0,4095.0,561.0
0.6063492298126221,2669.0,2208.0,641.0,4095.0,848.0
0.6111760139465332,2755.0,2655.0,642.0,4095.0,4095.0
0.6113319396972656,2507.0,2647.0,695.0,4095.0,4095.0
0.6114530563354492,2702.0,2608.0,710.0,4095.0,738.0
0.6169230937957764,2690.0,1879.0,1200.0,4095.0,2557.0
0.6170620918273926,2023.0,2640.0,1296.0,4095.0,4095.0
0.6222081184387207,2547.0,2624.0,1477.0,4095.0,4095.0
0.6225638389587402,2704.0,2587.0,1340.0,4095.0,635.0
0.6279571056365967,2277.0,2514.0,1391.0,4095.0,523.0
0.6280851364135742,2559.0,2426.0,1424.0,4095.0,4095.0
0.6329219341278076,2583.0,2608.0,1776.0,4095.0,847.0
0.6330440044403076,2715.0,2549.0,1868.0,4095.0,561.0
0.6389131546020508,2361.0,2483.0,1863.0,4095.0,4095.0
0.6390290260314941,2639.0,2382.0,1840.0,4095.0,1687.0
0.6448349952697754,2730.0,2217.0,1109.0,4095.0,2201.0
0.644949197769165,2462.0,2624.0,1600.0,4095.0,592.0
0.6497340202331543,2458.0,2467.0,1040.0,4095.0,4095.0
0.649852991104126,2677.0,2363.0,1009.0,4095.0,1360.0
0.6557610034942627,2730.0,1962.0,1151.0,4095.0,2279.0
0.655872106552124,2517.0,2628.0,1117.0,4095.0,2122.0
0.660836935043335,2679.0,2613.0,1209.0,4095.0,973.0
0.6609511375427246,2687.0,2222.0,1624.0,4095.0,1654.0
0.6668291091918945,1925.0,2214.0,1300.0,4095.0,2354.0
0.6669399738311768,2549.0,2620.0,622.0,4095.0,2015.0
0.6717300415039062,2706.0,2597.0,618.0,4095.0,626.0
0.6718389987945557,2289.0,2543.0,591.0,4095.0,974.0
0.6778209209442139,2586.0,2455.0,610.0,4095.0,1328.0
0.6779768466949463,2559.0,2583.0,1055.0,4095.0,1613.0
0.6827971935272217,2720.0,2544.0,1061.0,4095.0,782.0
0.6829211711883545,2349.0,2451.0,1157.0,4095.0,1711.0
0.6887571811676025,2622.0,2384.0,1162.0,4095.0,2631.0
0.6888799667358398,2730.0,2238.0,1313.0,4095.0,2533.0
0.6947910785675049,2448.0,2490.0,1247.0,4095.0,1313.0
0.6949200630187988,2445.0,2439.0,1757.0,4095.0,2431.0
0.6998531818389893,2678.0,2320.0,1779.0,4095.0,4095.0
0.6999969482421875,2741.0,2064.0,1787.0,4095.0,1722.0
0.7057449817657471,2523.0,2581.0,1819.0,4095.0,893.0
0.7058792114257812,2693.0,2599.0,1911.0,4095.0,545.0
0.7107760906219482,1858.0,2531.0,1064.0,4095.0,3053.0
0.7108991146087646,2736.0,1723.0,851.0,4095.0,976.0
0.7168309688568115,2535.0,2595.0,1019.0,4095.0,928.0
0.7169680595397949,2710.0,2544.0,1101.0,4095.0,559.0
0.722027063369751,2176.0,2518.0,1077.0,4095.0,4095.0
0.7221550941467285,2595.0,2442.0,1091.0,4095.0,2916.0
0.7278120517730713,2735.0,2285.0,687.0,4095.0,1227.0
0.727959156036377,2731.0,2512.0,1571.0,4095.0,3863.0
0.7328650951385498,2331.0,2503.0,1597.0,4095.0,624.0
0.7330188751220703,2602.0,2410.0,1643.0,4095.0,2467.0
0.7388081550598145,2725.0,2315.0,1607.0,4095.0,2539.0
0.7389452457427979,2429.0,1967.0,1697.0,4095.0,4095.0
0.7447571754455566,2399.0,2421.0,608.0,4095.0,634.0
0.7448940277099609,2640.0,2333.0,620.0,4095.0,3398.0
0.7498400211334229,2729.0,2180.0,656.0,4095.0,1776.0
0.7499840259552002,2485.0,2590.0,718.0,4095.0,1466.0
0.7557468414306641,2682.0,2559.0,784.0,4095.0,1161.0
0.7558920383453369,2362.0,2542.0,912.0,4095.0,1984.0
0.7607429027557373,2735.0,1955.0,1382.0,4095.0,1843.0
0.7608861923217773,2514.0,2559.0,1355.0,4095.0,885.0
0.7668108940124512,2703.0,2545.0,1331.0,4095.0,1004.0
0.7669839859008789,2015.0,2514.0,1520.0,4095.0,1375.0
0.767125129699707,2559.0,2433.0,1586.0,4095.0,871.0
0.7718899250030518,2710.0,2316.0,1738.0,4095.0,880.0
0.7720611095428467,2699.0,2518.0,1927.0,4095.0,962.0
0.7781369686126709,2333.0,2447.0,1860.0,4095.0,2183.0
0.7783050537109375,2590.0,2363.0,1887.0,4095.0,4049.0
0.7829411029815674,2710.0,2256.0,1952.0,4095.0,1895.0
0.7830979824066162,2423.0,1730.0,1904.0,4095.0,627.0
0.7889270782470703,2654.0,2559.0,1700.0,4095.0,2928.0
0.7890760898590088,2656.0,2349.0,1195.0,4095.0,780.0
0.7950260639190674,2704.0,2214.0,1135.0,4095.0,797.0
0.7951970100402832,2479.0,1978.0,1072.0,4095.0,2395.0
0.7999482154846191,2674.0,2559.0,1164.0,4095.0,4095.0
0.8000972270965576,1850.0,2544.0,1183.0,4095.0,763.0
0.8059589862823486,1843.0,2063.0,1616.0,4095.0,947.0
0.8061251640319824,2511.0,2559.0,1754.0,4095.0,553.0
0.8109478950500488,2698.0,2557.0,1771.0,4095.0,2075.0
0.8111281394958496,2269.0,2495.0,1793.0,4095.0,4095.0
0.8169190883636475,2591.0,2462.0,1878.0,4095.0,847.0
0.8171160221099854,2704.0,2353.0,1791.0,4095.0,3840.0
0.8218262195587158,2703.0,2531.0,735.0,4095.0,558.0
0.8219878673553467,2353.0,2451.0,784.0,4095.0,3906.0
0.8280160427093506,2589.0,2400.0,763.0,4095.0,3278.0
0.8281970024108887,2704.0,2315.0,845.0,4095.0,791.0
0.8328900337219238,2403.0,2138.0,857.0,4095.0,1895.0
0.8330588340759277,2627.0,2537.0,931.0,4095.0,752.0
0.8389160633087158,2633.0,2338.0,1738.0,4095.0,4095.0
0.839083194732666,2713.0,2245.0,1798.0,4095.0,943.0
0.8448929786682129,2486.0,1838.0,1891.0,4095.0,821.0
0.8451740741729736,2658.0,2530.0,1870.0,4095.0,3110.0
0.8499331474304199,2712.0,2519.0,1871.0,4095.0,917.0
0.850114107131958,2523.0,2480.0,1878.0,4095.0,2061.0
0.8558759689331055,2499.0,2529.0,833.0,4095.0,470.0
0.8560409545898438,2687.0,2507.0,907.0,4095.0,3067.0
0.8608479499816895,1903.0,2485.0,982.0,4095.0,2246.0
0.8610498905181885,2559.0,2416.0,1070.0,4095.0,747.0
0.8669180870056152,2704.0,2369.0,1212.0,4095.0,1305.0
0.8671140670776367,2321.0,2227.0,1265.0,4095.0,506.0
0.8718340396881104,2307.0,2451.0,1615.0,4095.0,3569.0
0.87204909324646,2589.0,2353.0,1622.0,4095.0,769.0
0.8777868747711182,2719.0,2291.0,1684.0,4095.0,468.0
0.878007173538208,2416.0,2125.0,1610.0,4095.0,4095.0
0.8827579021453857,2643.0,2512.0,1680.0,4095.0,887.0
0.8829572200775146,2731.0,2498.0,1258.0,4095.0,2021.0
0.8831419944763184,2717.0,2187.0,879.0,4095.0,487.0
0.8888652324676514,2468.0,1653.0,870.0,4095.0,4095.0
0.8890740871429443,2657.0,2483.0,959.0,4095.0,3136.0
0.8949429988861084,2721.0,2480.0,1218.0,4095.0,784.0
0.8951981067657471,2507.0,2432.0,1319.0,4095.0,1447.0
0.8999850749969482,2685.0,2480.0,1529.0,4095.0,1069.0
0.9001920223236084,2686.0,2461.0,1525.0,4095.0,3551.0
0.9058351516723633,2111.0,2451.0,1645.0,4095.0,754.0
0.9060430526733398,2559.0,2363.0,1623.0,4095.0,1048.0
0.9109640121459961,2719.0,2297.0,1762.0,4095.0,4095.0
0.9111690521240234,2338.0,2175.0,1741.0,4095.0,2025.0
0.9170939922332764,2304.0,2395.0,689.0,4095.0,816.0
0.9172940254211426,2559.0,2319.0,721.0,4095.0,708.0
0.9218740463256836,2700.0,2238.0,768.0,4095.0,3908.0
0.922065019607544,2395.0,2071.0,813.0,4095.0,3298.0
0.9299321174621582,2638.0,2479.0,910.0,4095.0,663.0
0.9301440715789795,2718.0,2443.0,1085.0,4095.0,1299.0
0.9329092502593994,2729.0,2096.0,1837.0,4095.0,1360.0
0.9331490993499756,2448.0,1840.0,1868.0,4095.0,4095.0
0.9388840198516846,2645.0,2441.0,1808.0,4095.0,785.0
0.9391200542449951,2704.0,2416.0,1809.0,4095.0,656.0
0.9449338912963867,2512.0,2366.0,1799.0,4095.0,3714.0
0.9453818798065186,2698.0,2277.0,1808.0,4095.0,1799.0
0.9499390125274658,2672.0,2414.0,829.0,4095.0,2927.0
0.950171947479248,1913.0,2382.0,771.0,4095.0,699.0
0.9559299945831299,2549.0,2299.0,771.0,4095.0,1815.0
0.9561400413513184,2678.0,2222.0,817.0,4095.0,4095.0
0.9609229564666748,2274.0,2060.0,854.0,4095.0,645.0
0.9611730575561523,2547.0,2284.0,965.0,4095.0,1714.0
0.9668712615966797,2559.0,2221.0,1575.0,4095.0,1302.0
0.9670670032501221,2704.0,2105.0,1424.0,4095.0,4095.0
0.9718842506408691,2410.0,1517.0,1535.0,4095.0,1015.0
0.9720709323883057,2634.0,2421.0,1535.0,4095.0,634.0
0.9780020713806152,2703.0,2397.0,1640.0,4095.0,2559.0
0.9781708717346191,2480.0,2338.0,622.0,4095.0,1719.0
0.9828529357910156,2459.0,2418.0,619.0,4095.0,2346.0
0.9830141067504883,2643.0,2399.0,669.0,4095.0,658.0
0.9887900352478027,2176.0,2355.0,691.0,4095.0,1809.0
0.9889380931854248,2515.0,2273.0,706.0,4095.0,4095.0
0.9947779178619385,2673.0,2197.0,704.0,4095.0,666.0
0.9949190616607666,2224.0,2031.0,987.0,4095.0,2025.0
0.9950301647186279,2224.0,2313.0,1259.0,4095.0,769.0
0.9998769760131836,2539.0,2224.0,1229.0,4095.0,4095.0
1.0000081062316895,2674.0,2112.0,1312.0,4095.0,1781.0
1.0058751106262207,2348.0,1862.0,1305.0,4095.0,605.0
1.0059950351715088,2559.0,2407.0,1311.0,4095.0,2006.0
1.010848045349121,2694.0,2246.0,609.0,4095.0,627.0
1.0109589099884033,2697.0,1987.0,1941.0,4095.0,4095.0
1.0168230533599854,2395.0,2324.0,1781.0,4095.0,649.0
1.0169391632080078,2615.0,2389.0,1808.0,4095.0,849.0
1.0218489170074463,2688.0,2365.0,1724.0,4095.0,4095.0
1.0219700336456299,2469.0,2325.0,1708.0,4095.0,2544.0
1.02785325050354,2450.0,2398.0,1234.0,4095.0,722.0
1.0279760360717773,2642.0,2363.0,1283.0,4095.0,573.0
1.0327870845794678,1811.0,2332.0,1445.0,4095.0,3316.0
1.0329110622406006,2501.0,2261.0,1355.0,4095.0,4095.0
1.0389950275421143,2663.0,2160.0,1282.0,4095.0,594.0
1.0391180515289307,2212.0,1990.0,1243.0,4095.0,898.0
1.0450799465179443,2139.0,2241.0,1575.0,4095.0,2263.0
1.0452079772949219,2519.0,2138.0,1665.0,4095.0,4095.0
1.0497920513153076,2646.0,1952.0,1775.0,4095.0,670.0
1.0499069690704346,2336.0,2402.0,624.0,4095.0,534.0
1.0557241439819336,2583.0,2375.0,634.0,4095.0,3699.0
1.055845022201538,2668.0,2356.0,627.0,4095.0,2554.0
1.0608270168304443,2691.0,1458.0,1214.0,4095.0,1907.0
1.0609428882598877,2416.0,2373.0,1606.0,4095.0,606.0
1.0668082237243652,2682.0,2361.0,1525.0,4095.0,1837.0
1.0669310092926025,2672.0,2316.0,1514.0,4095.0,4095.0
1.071800947189331,2421.0,2234.0,1510.0,4095.0,875.0
1.07191801071167,2634.0,2171.0,1163.0,4095.0,3504.0
1.077789068222046,2608.0,2335.0,1655.0,4095.0,640.0
1.0779139995574951,1883.0,2284.0,1858.0,4095.0,4095.0
1.0828020572662354,2462.0,2190.0,1853.0,4095.0,1293.0
1.0829980373382568,2652.0,2080.0,1912.0,4095.0,586.0
1.0887260437011719,2274.0,1889.0,609.0,4095.0,1571.0
1.08884596824646,2535.0,2262.0,1189.0,4095.0,482.0
1.0948171615600586,2487.0,2163.0,1111.0,4095.0,3605.0
1.0949652194976807,2671.0,2001.0,1174.0,4095.0,656.0
1.099735975265503,2338.0,2025.0,1262.0,4095.0,594.0
1.1000242233276367,2583.0,2333.0,1345.0,4095.0,4095.0
1.105762243270874,2717.0,2345.0,1285.0,4095.0,3502.0
1.1059200763702393,2661.0,1792.0,1755.0,4095.0,2064.0
1.1107730865478516,2384.0,2352.0,1733.0,4095.0,608.0
1.1109049320220947,2601.0,2333.0,1679.0,4095.0,2032.0
1.1168711185455322,2673.0,2302.0,1648.0,4095.0,4095.0
1.117008924484253,2411.0,2229.0,1622.0,4095.0,651.0
1.121690034866333,2614.0,2154.0,1729.0,4095.0,3180.0
1.121809959411621,2628.0,2299.0,848.0,4095.0,689.0
1.1277620792388916,1855.0,2245.0,816.0,4095.0,4095.0
1.1279151439666748,2515.0,2114.0,866.0,4095.0,2724.0
1.1327271461486816,2651.0,2084.0,967.0,4095.0,630.0
1.1328599452972412,2265.0,1820.0,1057.0,4095.0,1535.0
1.1329841613769531,2512.0,2342.0,1199.0,4095.0,746.0
1.1388051509857178,2542.0,2125.0,1833.0,4095.0,4095.0
1.1389389038085938,2681.0,1949.0,1766.0,4095.0,829.0
1.144866943359375,2361.0,2330.0,1872.0,4095.0,624.0
1.145024061203003,2583.0,2321.0,1889.0,4095.0,3255.0
1.1498780250549316,2683.0,2299.0,1843.0,4095.0,3504.0
1.1500239372253418,2451.0,2251.0,1718.0,4095.0,4095.0
1.1559109687805176,2448.0,2330.0,1087.0,4095.0,692.0
1.1560609340667725,2654.0,2306.0,1104.0,4095.0,1694.0
1.1608641147613525,2690.0,2250.0,1088.0,4095.0,4095.0
1.1610140800476074,2431.0,2177.0,1154.0,4095.0,735.0
1.1669859886169434,2678.0,2079.0,1074.0,4095.0,573.0
1.1671361923217773,2099.0,2263.0,1609.0,4095.0,847.0
1.1718721389770508,1873.0,2174.0,1666.0,4095.0,1991.0
1.1720199584960938,2530.0,2098.0,1700.0,4095.0,4095.0
1.177856206893921,2678.0,1948.0,1687.0,4095.0,673.0
1.1780061721801758,2303.0,2032.0,1777.0,4095.0,773.0
1.1828958988189697,2559.0,2311.0,1744.0,4095.0,566.0
1.1830449104309082,2556.0,1975.0,622.0,4095.0,4095.0
1.1888442039489746,2689.0,1654.0,710.0,4095.0,2783.0
1.1890051364898682,2395.0,2320.0,662.0,4095.0,703.0
1.1953859329223633,2620.0,2288.0,694.0,4095.0,2075.0
1.195556879043579,2715.0,2251.0,754.0,4095.0,4095.0
1.1999619007110596,2463.0,2174.0,786.0,4095.0,4095.0
1.2002360820770264,2448.0,2295.0,1171.0,4095.0,1023.0
1.2058892250061035,2658.0,2282.0,1130.0,4095.0,743.0
1.2060391902923584,2726.0,2224.0,1315.0,4095.0,3058.0
1.2109851837158203,2499.0,2132.0,1355.0,4095.0,4095.0
1.2111351490020752,2679.0,2003.0,1648.0,4095.0,713.0
1.2173049449920654,2000.0,1827.0,1606.0,4095.0,2932.0
1.2174749374389648,1952.0,2157.0,1743.0,4095.0,559.0
1.221808910369873,2521.0,2075.0,1879.0,4095.0,4095.0
1.2219321727752686,2691.0,1906.0,1826.0,4095.0,2747.0
1.2297570705413818,2263.0,1360.0,1760.0,4095.0,719.0
1.22999906539917,2559.0,2298.0,656.0,4095.0,2010.0
1.2328150272369385,2721.0,2256.0,1857.0,4095.0,654.0
1.2329349517822266,2711.0,1655.0,1142.0,4095.0,4095.0
1.238874912261963,2367.0,2290.0,1339.0,4095.0,1286.0
1.239121913909912,2624.0,2274.0,1555.0,4095.0,752.0
1.2448348999023438,2727.0,2205.0,1623.0,4095.0,4095.0
1.2449610233306885,2467.0,2150.0,1648.0,4095.0,4095.0
1.249743938446045,2673.0,2273.0,1652.0,4095.0,4095.0
1.2498531341552734,2654.0,2259.0,1808.0,4095.0,915.0
1.2557499408721924,2749.0,2205.0,898.0,4095.0,571.0
1.255859136581421,2503.0,2117.0,609.0,4095.0,4095.0
1.2607460021972656,2698.0,2000.0,624.0,4095.0,3250.0
1.2608442306518555,1951.0,1872.0,625.0,4095.0,747.0
1.2667348384857178,1947.0,2173.0,1296.0,4095.0,555.0
1.2668640613555908,2559.0,2085.0,1203.0,4095.0,2032.0
1.2716381549835205,2724.0,1951.0,1457.0,4095.0,4095.0
1.2717640399932861,2304.0,1507.0,1506.0,4095.0,1511.0
1.2718720436096191,2609.0,2283.0,1684.0,4095.0,807.0
1.277853012084961,2757.0,2218.0,1637.0,4095.0,630.0
1.2779760360717773,2738.0,1691.0,1737.0,4095.0,3359.0
1.282883882522583,2397.0,2276.0,1554.0,4095.0,4095.0
1.282989263534546,2642.0,2256.0,638.0,4095.0,902.0
1.2888100147247314,2757.0,2229.0,600.0,4095.0,624.0
1.2889230251312256,2482.0,2141.0,594.0,4095.0,4095.0
1.2948298454284668,2707.0,2071.0,656.0,4095.0,2071.0
1.2949540615081787,2746.0,2208.0,1145.0,4095.0,3553.0
1.2997829914093018,2779.0,2193.0,1195.0,4095.0,560.0
1.2999019622802734,2541.0,2099.0,1198.0,4095.0,2003.0
1.3057661056518555,2711.0,1986.0,1139.0,4095.0,4095.0
1.3058881759643555,2018.0,1811.0,1185.0,4095.0,1855.0
1.310811996459961,2605.0,2265.0,720.0,4095.0,4095.0
1.310939073562622,2553.0,2043.0,1296.0,4095.0,550.0
1.3168442249298096,2773.0,1873.0,704.0,4095.0,3189.0
1.316964864730835,2427.0,1778.0,610.0,4095.0,4095.0
1.3217360973358154,2615.0,2256.0,618.0,4095.0,615.0
1.3218560218811035,2752.0,2230.0,624.0,4095.0,553.0
1.327850103378296,2478.0,2178.0,1211.0,4095.0,643.0
1.327998161315918,2432.0,2265.0,1131.0,4095.0,4095.0
1.332820177078247,2721.0,2225.0,1184.0,4095.0,3294.0
1.3329648971557617,2731.0,2203.0,1038.0,4095.0,603.0
1.3387432098388672,2513.0,2118.0,1072.0,4095.0,1666.0
1.338881015777588,2759.0,2035.0,1139.0,4095.0,4095.0
1.344878911972046,2725.0,1873.0,1141.0,4095.0,4095.0
1.3450219631195068,1991.0,2160.0,1968.0,4095.0,774.0
1.3497920036315918,2586.0,2093.0,1822.0,4095.0,622.0
1.3499181270599365,2735.0,1961.0,1861.0,4095.0,3575.0
1.3557610511779785,2256.0,1659.0,1872.0,4095.0,4095.0
1.3559062480926514,2559.0,2251.0,2027.0,4095.0,622.0
1.3607399463653564,2607.0,1995.0,651.0,4095.0,754.0
1.360888957977295,2726.0,1808.0,667.0,4095.0,1022.0
1.3668100833892822,2402.0,2246.0,694.0,4095.0,4095.0
1.3669579029083252,2659.0,2228.0,731.0,4095.0,2720.0
1.3717610836029053,2752.0,2199.0,747.0,4095.0,619.0
1.3719110488891602,2461.0,2138.0,915.0,4095.0,1995.0
1.377777099609375,2477.0,2255.0,1607.0,4095.0,667.0
1.377943992614746,2679.0,2213.0,1713.0,4095.0,4095.0
1.3827381134033203,2773.0,2155.0,1728.0,4095.0,2058.0
1.3828959465026855,2603.0,2078.0,1755.0,4095.0,673.0
1.3887419700622559,2718.0,1998.0,1712.0,4095.0,2436.0
1.388916015625,2131.0,1817.0,1751.0,4095.0,675.0
1.3890750408172607,1919.0,2128.0,783.0,4095.0,4095.0
1.3948559761047363,2586.0,2053.0,786.0,4095.0,823.0
1.3950769901275635,2736.0,1905.0,944.0,4095.0,752.0
1.399972915649414,2355.0,1523.0,915.0,4095.0,3816.0
1.4001538753509521,2624.0,2224.0,1023.0,4095.0,4095.0
1.4058539867401123,2753.0,2214.0,985.0,4095.0,4095.0
1.406019926071167,2743.0,1836.0,1379.0,4095.0,848.0
1.4108519554138184,2439.0,2240.0,1332.0,4095.0,551.0
1.4110281467437744,2675.0,2252.0,1427.0,4095.0,4095.0
1.4168260097503662,2755.0,2199.0,1463.0,4095.0,3102.0
1.4169979095458984,2531.0,2117.0,1535.0,4095.0,703.0
1.4219238758087158,2704.0,2055.0,800.0,4095.0,708.0
1.4221200942993164,2707.0,2224.0,1952.0,4095.0,2166.0
1.4278569221496582,2784.0,2160.0,884.0,4095.0,4095.0
1.4280309677124023,2559.0,2096.0,602.0,4095.0,1699.0
1.4328999519348145,2785.0,1983.0,609.0,4095.0,726.0
1.433095932006836,2125.0,1840.0,626.0,4095.0,3146.0
1.4389729499816895,2627.0,2240.0,1520.0,4095.0,1097.0
1.4391720294952393,2608.0,2035.0,1243.0,4095.0,4095.0
1.444904088973999,2753.0,1911.0,1074.0,4095.0,958.0
1.445087194442749,2416.0,1392.0,1057.0,4095.0,528.0
1.4499640464782715,2633.0,2235.0,1011.0,4095.0,4095.0
1.4501609802246094,2755.0,2208.0,1205.0,4095.0,4095.0
1.4559431076049805,2545.0,2207.0,1650.0,4095.0,4095.0
1.4561491012573242,2471.0,2224.0,1815.0,4095.0,599.0
1.4608540534973145,2706.0,2230.0,614.0,4095.0,1073.0
1.4610350131988525,2766.0,2192.0,620.0,4095.0,4095.0
1.466752052307129,2539.0,2126.0,624.0,4095.0,3427.0
1.4669270515441895,2723.0,2036.0,679.0,4095.0,661.0
1.471843957901001,2727.0,2207.0,1637.0,4095.0,583.0
1.4720211029052734,2432.0,2185.0,1680.0,4095.0,2502.0
1.477783203125,2598.0,2083.0,1690.0,4095.0,4095.0
1.47800612449646,2752.0,1968.0,1830.0,4095.0,603.0
1.4830009937286377,2317.0,1872.0,1787.0,4095.0,554.0
1.4832220077514648,2633.0,1638.0,1738.0,4095.0,637.0
1.4887549877166748,2625.0,2032.0,1749.0,4095.0,3933.0
1.4889638423919678,2768.0,1923.0,1715.0,4095.0,4095.0
1.4949309825897217,2408.0,1644.0,1722.0,4095.0,642.0
1.4952569007873535,2646.0,2238.0,619.0,4095.0,731.0
1.495516061782837,2765.0,2209.0,614.0,4095.0,4095.0
1.5000300407409668,2513.0,2177.0,615.0,4095.0,1846.0
1.5002262592315674,2490.0,2194.0,1044.0,4095.0,3383.0
1.5059621334075928,2706.0,2212.0,1126.0,4095.0,624.0
1.5061578750610352,2796.0,2198.0,1243.0,4095.0,1791.0
1.511038064956665,2559.0,2155.0,1201.0,4095.0,4095.0
1.5112531185150146,2716.0,2069.0,1232.0,4095.0,1111.0
1.5171170234680176,2007.0,1981.0,1893.0,4095.0,4095.0
1.517327070236206,2760.0,2191.0,1793.0,4095.0,675.0
1.5218729972839355,2604.0,2113.0,1780.0,4095.0,2222.0
1.522078037261963,2701.0,2039.0,1735.0,4095.0,4095.0
1.5281050205230713,2257.0,1930.0,1682.0,4095.0,775.0
1.5286049842834473,2647.0,1639.0,1759.0,4095.0,579.0
1.5329411029815674,2768.0,1776.0,1606.0,4095.0,798.0
1.5331549644470215,2789.0,1998.0,816.0,4095.0,2525.0
1.538957118988037,2415.0,1867.0,835.0,4095.0,4095.0
1.5391340255737305,2673.0,1392.0,896.0,4095.0,752.0
1.5483059883117676,2788.0,2224.0,982.0,4095.0,1056.0
1.5486721992492676,2517.0,2194.0,1041.0,4095.0,4095.0
1.5502071380615234,2738.0,2094.0,1863.0,4095.0,2065.0
1.5507400035858154,2718.0,2232.0,1243.0,4095.0,3952.0
1.5565180778503418,2795.0,2220.0,1419.0,4095.0,771.0
1.5567700862884521,2585.0,2190.0,1616.0,4095.0,643.0
1.5625360012054443,2758.0,2135.0,1689.0,4095.0,4095.0
1.5626881122589111,1993.0,2033.0,1650.0,4095.0,2374.0
1.5676600933074951,2084.0,2195.0,1783.0,4095.0,2543.0
1.5678060054779053,2587.0,2192.0,1829.0,4095.0,566.0
1.5718638896942139,2755.0,2034.0,1793.0,4095.0,2470.0
1.5722498893737793,2355.0,1971.0,1798.0,4095.0,4095.0
1.5786221027374268,2640.0,1797.0,744.0,4095.0,767.0
1.5787441730499268,2768.0,2233.0,603.0,4095.0,1839.0
1.5831360816955566,2757.0,2032.0,962.0,4095.0,749.0
1.5834510326385498,2417.0,1842.0,1059.0,4095.0,4095.0
1.588824987411499,2636.0,1284.0,1168.0,4095.0,3319.0
1.588942050933838,2768.0,2224.0,1052.0,4095.0,790.0
1.594939947128296,2519.0,2206.0,1152.0,4095.0,1166.0
1.5951180458068848,2720.0,2159.0,1591.0,4095.0,582.0
1.5997920036315918,2701.0,2148.0,1744.0,4095.0,4095.0
1.599897861480713,2750.0,2219.0,1716.0,4095.0,1181.0
1.6057801246643066,2559.0,2197.0,1776.0,4095.0,494.0
1.6058802604675293,2733.0,2203.0,1663.0,4095.0,3922.0
1.6107800006866455,2177.0,2064.0,1693.0,4095.0,4095.0
1.610893964767456,2611.0,2000.0,1633.0,4095.0,4095.0
1.616767168045044,2597.0,2162.0,603.0,4095.0,560.0
1.6168711185455322,2731.0,2065.0,613.0,4095.0,1254.0
1.6217539310455322,2378.0,2000.0,655.0,4095.0,4095.0
1.6218750476837158,2626.0,1889.0,677.0,4095.0,2805.0
1.6277720928192139,2753.0,1429.0,679.0,4095.0,774.0
1.6278870105743408,2480.0,2189.0,1701.0,4095.0,726.0
1.6327040195465088,2499.0,1942.0,1155.0,4095.0,3471.0
1.6328091621398926,2701.0,1623.0,1174.0,4095.0,4095.0
1.6329081058502197,2753.0,2238.0,1354.0,4095.0,928.0
1.6388061046600342,2555.0,2194.0,1443.0,4095.0,752.0
1.6389122009277344,2709.0,2190.0,1513.0,4095.0,4095.0
1.6448321342468262,2706.0,1627.0,1894.0,4095.0,4095.0
1.644956111907959,2027.0,2227.0,1854.0,4095.0,2180.0
1.6498310565948486,2587.0,2217.0,1836.0,4095.0,572.0
1.6499550342559814,2723.0,2165.0,1823.0,4095.0,2097.0
1.6557462215423584,2343.0,2077.0,1863.0,4095.0,4095.0
1.655860185623169,2608.0,1978.0,615.0,4095.0,4095.0
1.6608281135559082,2623.0,2203.0,889.0,4095.0,644.0
1.660944938659668,2737.0,2099.0,993.0,4095.0,625.0
1.666844129562378,2435.0,2040.0,1312.0,4095.0,4095.0
1.666990041732788,2670.0,1879.0,1200.0,4095.0,4095.0
1.6718261241912842,2755.0,1319.0,1397.0,4095.0,566.0
1.6719639301300049,2517.0,2227.0,1305.0,4095.0,755.0
1.6805939674377441,2480.0,1980.0,1648.0,4095.0,1711.0
1.6807341575622559,2691.0,1799.0,1686.0,4095.0,4095.0
1.6838030815124512,2752.0,2231.0,1711.0,4095.0,1151.0
1.6840558052062988,2549.0,2229.0,1622.0,4095.0,575.0
1.6889569759368896,2713.0,2151.0,1631.0,4095.0,2411.0
1.6890780925750732,2129.0,2095.0,1840.0,4095.0,580.0
1.6949279308319092,2023.0,2208.0,874.0,4095.0,4095.0
1.695063829421997,2595.0,2192.0,898.0,4095.0,691.0
1.6999061107635498,2731.0,2107.0,951.0,4095.0,567.0
1.7001099586486816,2355.0,2061.0,955.0,4095.0,4095.0
1.7059900760650635,2625.0,1955.0,1034.0,4095.0,4095.0
1.706244945526123,2751.0,2220.0,1695.0,4095.0,4095.0
1.7108180522918701,2736.0,2078.0,1535.0,4095.0,633.0
1.7109332084655762,2451.0,2010.0,1630.0,4095.0,1693.0
1.717437982559204,2672.0,1897.0,1680.0,4095.0,4095.0
1.717538833618164,2763.0,1318.0,1750.0,4095.0,679.0
1.7218809127807617,2522.0,2236.0,1778.0,4095.0,558.0
1.7222568988800049,2514.0,1922.0,601.0,4095.0,637.0
1.727715015411377,2687.0,1481.0,633.0,4095.0,4095.0
1.7278170585632324,1893.0,2197.0,626.0,4095.0,4095.0
1.7379438877105713,2559.0,2220.0,678.0,4095.0,656.0
1.7381880283355713,2710.0,2191.0,850.0,4095.0,979.0
1.7389819622039795,2259.0,2096.0,893.0,4095.0,4095.0
1.7392621040344238,2183.0,2230.0,1456.0,4095.0,4095.0
1.7449049949645996,2589.0,2207.0,1535.0,4095.0,2784.0
1.7450311183929443,2729.0,2146.0,1522.0,4095.0,660.0
1.7497491836547852,2377.0,2080.0,1625.0,4095.0,1983.0
1.7498629093170166,2635.0,1984.0,1702.0,4095.0,4095.0
1.7559561729431152,2737.0,1772.0,1648.0,4095.0,4095.0
1.7560830116271973,2731.0,2135.0,668.0,4095.0,1061.0
1.7562220096588135,2455.0,2059.0,626.0,4095.0,673.0
1.767246961593628,2656.0,1919.0,686.0,4095.0,2863.0
1.7673511505126953,2736.0,1602.0,688.0,4095.0,4025.0
1.7674341201782227,2512.0,2244.0,686.0,4095.0,670.0
1.7675211429595947,2693.0,2224.0,672.0,4095.0,1388.0
1.772825002670288,2699.0,1835.0,1178.0,4095.0,1190.0
1.7729151248931885,1847.0,2160.0,988.0,4095.0,4095.0
1.7777948379516602,2551.0,2233.0,1188.0,4095.0,1695.0
1.7778918743133545,2706.0,2207.0,1231.0,4095.0,677.0
1.782789945602417,2299.0,2141.0,1482.0,4095.0,2521.0
1.782891035079956,2601.0,2073.0,669.0,4095.0,763.0
1.7891311645507812,2592.0,2231.0,1982.0,4095.0,4095.0
1.7892320156097412,2729.0,2192.0,1994.0,4095.0,786.0
1.7947931289672852,2412.0,2114.0,1888.0,4095.0,837.0
1.7948939800262451,2651.0,2031.0,682.0,4095.0,4095.0
1.799717903137207,2722.0,1901.0,647.0,4095.0,3599.0
1.7998108863830566,2491.0,1307.0,745.0,4095.0,4095.0
1.8056910037994385,2471.0,2097.0,1137.0,4095.0,726.0
1.805783987045288,2684.0,2009.0,1147.0,4095.0,1562.0
1.8108720779418945,2704.0,1759.0,1267.0,4095.0,4095.0
1.8109898567199707,2529.0,2267.0,1299.0,4095.0,1230.0
1.8167691230773926,2690.0,2258.0,1392.0,4095.0,694.0
1.816866159439087,2162.0,2219.0,767.0,4095.0,756.0
1.8216750621795654,1892.0,1329.0,1859.0,4095.0,4095.0
1.8217799663543701,2544.0,2263.0,1853.0,4095.0,4095.0
1.8277831077575684,2694.0,2245.0,1806.0,4095.0,807.0
1.827911138534546,2309.0,2199.0,1739.0,4095.0,1043.0
1.8327510356903076,2559.0,2114.0,1694.0,4095.0,4095.0
1.832888126373291,2559.0,2256.0,718.0,4095.0,4095.0
1.838670015335083,2701.0,2233.0,747.0,4095.0,1680.0
1.838771104812622,2347.0,2144.0,867.0,4095.0,526.0
1.8448519706726074,2615.0,2066.0,813.0,4095.0,2809.0
1.8449671268463135,2705.0,1962.0,827.0,4095.0,4095.0
1.8497650623321533,2446.0,1597.0,757.0,4095.0,4095.0
1.849886178970337,2415.0,2114.0,1451.0,4095.0,583.0
1.8556549549102783,2644.0,2011.0,1386.0,4095.0,769.0
1.855774164199829,2705.0,1807.0,1451.0,4095.0,4095.0
1.8607470989227295,2499.0,2277.0,1555.0,4095.0,2854.0
1.8609428405761719,2675.0,2257.0,1655.0,4095.0,803.0
1.8667140007019043,1879.0,2209.0,1667.0,4095.0,702.0
1.86683988571167,1841.0,1347.0,1739.0,4095.0,2621.0
1.8716392517089844,2531.0,2279.0,1747.0,4095.0,4095.0
1.8717520236968994,2675.0,2262.0,1856.0,4095.0,905.0
1.871856927871704,2291.0,2224.0,976.0,4095.0,511.0
1.8778741359710693,2559.0,2133.0,620.0,4095.0,4095.0
1.8780241012573242,2694.0,2053.0,592.0,4095.0,2946.0
1.882822036743164,2667.0,2227.0,976.0,4095.0,3066.0
1.882944107055664,2368.0,2110.0,976.0,4095.0,544.0
1.8887200355529785,2613.0,2085.0,991.0,4095.0,2151.0
1.8888468742370605,2698.0,1946.0,986.0,4095.0,4095.0
1.8948349952697754,2449.0,1360.0,1167.0,4095.0,917.0
1.8949761390686035,2651.0,2256.0,1843.0,4095.0,3109.0
1.899799108505249,2630.0,2021.0,1629.0,4095.0,504.0
1.8999290466308594,2288.0,1804.0,1555.0,4095.0,4095.0
1.905745029449463,2496.0,2279.0,1600.0,4095.0,4095.0
1.9058799743652344,2653.0,2263.0,1701.0,4095.0,547.0
1.91087007522583,2221.0,2246.0,1685.0,4095.0,971.0
1.9110360145568848,2539.0,1773.0,949.0,4095.0,646.0
1.9168250560760498,2519.0,2267.0,1035.0,4095.0,4095.0
1.9169621467590332,2669.0,2263.0,983.0,4095.0,653.0
1.9216949939727783,2330.0,2224.0,1131.0,4095.0,547.0
1.9218299388885498,2559.0,2129.0,1062.0,4095.0,2586.0
1.927832841873169,2673.0,2074.0,1168.0,4095.0,4095.0
1.9279839992523193,2416.0,2125.0,1266.0,4095.0,4095.0
1.9328320026397705,2394.0,2210.0,1638.0,4095.0,626.0
1.9329590797424316,2605.0,2118.0,1727.0,4095.0,837.0
1.9386849403381348,2658.0,2027.0,1726.0,4095.0,4095.0
1.9388420581817627,2469.0,1839.0,1730.0,4095.0,3098.0
1.9448139667510986,2617.0,2277.0,1795.0,4095.0,4095.0
1.9449610710144043,2640.0,2062.0,608.0,4095.0,592.0
1.9498021602630615,1878.0,1927.0,602.0,4095.0,2391.0
1.949949026107788,2515.0,1707.0,581.0,4095.0,4095.0
1.955698013305664,2602.0,2261.0,631.0,4095.0,624.0
1.9558401107788086,2268.0,2250.0,641.0,4095.0,544.0
1.9609050750732422,2534.0,2202.0,790.0,4095.0,4095.0
1.9610660076141357,2506.0,1722.0,1520.0,4095.0,4095.0
1.9667150974273682,2590.0,2258.0,1520.0,4095.0,2289.0
1.9668712615966797,2350.0,2230.0,1520.0,4095.0,585.0
1.9717180728912354,2559.0,2177.0,1658.0,4095.0,1711.0
1.9718670845031738,2607.0,2095.0,1602.0,4095.0,4095.0
1.9777722358703613,2416.0,2002.0,1654.0,4095.0,3071.0
1.9779438972473145,2416.0,2224.0,634.0,4095.0,858.0
1.978083848953247,2559.0,2166.0,608.0,4095.0,589.0
1.9827961921691895,2630.0,2071.0,624.0,4095.0,2873.0
1.9829380512237549,2411.0,1956.0,624.0,4095.0,4095.0
1.9888668060302734,2607.0,1599.0,638.0,4095.0,619.0
1.989037275314331,1962.0,2262.0,646.0,4095.0,1487.0
1.9949069023132324,1728.0,1974.0,1440.0,4095.0,1360.0
1.9950649738311768,2439.0,1795.0,1340.0,4095.0,4095.0
1.99983811378479,2595.0,2273.0,1333.0,4095.0,1495.0
1.9999990463256836,2173.0,2248.0,1483.0,4095.0,592.0
2.0059280395507812,2463.0,2227.0,1479.0,4095.0,2456.0
2.006103038787842,2608.0,2176.0,1107.0,4095.0,688.0
2.010923147201538,2594.0,2214.0,1728.0,4095.0,4095.0
2.011101007461548,2245.0,2233.0,1643.0,4095.0,705.0
2.016897201538086,2493.0,2206.0,1753.0,4095.0,611.0
2.017082929611206,2605.0,2118.0,605.0,4095.0,4095.0
2.0218400955200195,2330.0,2063.0,605.0,4095.0,2240.0
2.0220088958740234,2544.0,1776.0,1739.0,4095.0,4095.0
2.0279271602630615,2519.0,2178.0,1298.0,4095.0,705.0
2.028107166290283,2594.0,2096.0,1474.0,4095.0,1599.0
2.032878875732422,2347.0,1973.0,1443.0,4095.0,4095.0
2.033055067062378,2547.0,1813.0,1375.0,4095.0,815.0
2.038904905319214,1719.0,2255.0,1729.0,4095.0,591.0
2.039072036743164,1683.0,2027.0,1570.0,4095.0,754.0
2.044890880584717,2397.0,1887.0,603.0,4095.0,2593.0
2.045240879058838,2543.0,1325.0,624.0,4095.0,4095.0
2.0498111248016357,2113.0,2250.0,603.0,4095.0,749.0
2.049981117248535,2431.0,2230.0,635.0,4095.0,817.0
2.055765151977539,2547.0,2191.0,663.0,4095.0,4095.0
2.0559580326080322,2543.0,2239.0,1361.0,4095.0,4095.0
2.0608060359954834,2192.0,2235.0,1434.0,4095.0,2451.0
2.0609989166259766,2451.0,2205.0,1460.0,4095.0,741.0
2.0667359828948975,2559.0,2129.0,1392.0,4095.0,1168.0
2.066946268081665,2291.0,2039.0,1423.0,4095.0,4095.0
2.0716712474823,2494.0,1910.0,1490.0,4095.0,4095.0
2.0718390941619873,2487.0,2162.0,1668.0,4095.0,841.0
2.077820062637329,2554.0,2068.0,1704.0,4095.0,871.0
2.0780181884765625,2338.0,2000.0,1847.0,4095.0,4095.0
2.082895040512085,2506.0,1811.0,1887.0,4095.0,3878.0
2.0830910205841064,1730.0,2245.0,1811.0,4095.0,699.0
2.0888941287994385,2375.0,2223.0,1710.0,4095.0,1135.0
2.08909010887146,2358.0,1933.0,815.0,4095.0,1460.0
2.0947961807250977,2501.0,1670.0,816.0,4095.0,4095.0
2.0949981212615967,2020.0,2229.0,872.0,4095.0,1311.0
2.095189094543457,2386.0,2212.0,1146.0,4095.0,682.0
2.100011110305786,2525.0,2173.0,1200.0,4095.0,2797.0
2.1002230644226074,2189.0,1904.0,1205.0,4095.0,1389.0
2.1060149669647217,2145.0,2235.0,1820.0,4095.0,4095.0
2.1062159538269043,2432.0,2212.0,1919.0,4095.0,805.0
2.110934019088745,2531.0,2133.0,1919.0,4095.0,1088.0
2.1111490726470947,2260.0,2071.0,1937.0,4095.0,4095.0
2.1169490814208984,2478.0,1964.0,1920.0,4095.0,2882.0
2.1171600818634033,2437.0,2189.0,770.0,4095.0,3775.0
2.121798038482666,2509.0,2101.0,862.0,4095.0,834.0
2.1220240592956543,2321.0,2035.0,899.0,4095.0,1489.0
2.127932071685791,2483.0,1901.0,967.0,4095.0,4095.0
2.128157138824463,1642.0,1286.0,1161.0,4095.0,1469.0
2.1329638957977295,2364.0,2224.0,1312.0,4095.0,4037.0
2.133174180984497,2363.0,1958.0,1687.0,4095.0,499.0
2.138867139816284,2489.0,1753.0,1766.0,4095.0,3452.0
2.139082193374634,2099.0,2226.0,1773.0,4095.0,4095.0
2.1448569297790527,2387.0,2218.0,1909.0,4095.0,803.0
2.145080089569092,2512.0,2203.0,1829.0,4095.0,1105.0
2.149915933609009,2207.0,2141.0,1901.0,4095.0,551.0
2.1501290798187256,2160.0,2240.0,609.0,4095.0,4095.0
2.155817985534668,2405.0,2210.0,659.0,4095.0,2304.0
2.155987024307251,2525.0,2166.0,652.0,4095.0,496.0
2.1609010696411133,2250.0,2096.0,738.0,4095.0,2387.0
2.1611239910125732,2458.0,1990.0,703.0,4095.0,4095.0
2.166804075241089,2530.0,1819.0,1824.0,4095.0,4095.0
2.166994094848633,2505.0,2092.0,1136.0,4095.0,624.0
2.1717309951782227,2317.0,2015.0,1104.0,4095.0,560.0
2.1719279289245605,2495.0,1839.0,1197.0,4095.0,4095.0
2.1778671741485596,1619.0,1314.0,1301.0,4095.0,4095.0
2.1780922412872314,2358.0,2229.0,1586.0,4095.0,876.0
2.1827499866485596,2506.0,2011.0,1420.0,4095.0,1778.0
2.1829452514648438,2501.0,1296.0,1781.0,4095.0,1226.0
2.18884015083313,2001.0,2226.0,1815.0,4095.0,4095.0
2.189077138900757,2378.0,2209.0,1839.0,4095.0,2939.0
2.194917917251587,2533.0,2163.0,1894.0,4095.0,560.0
2.1951818466186523,2203.0,2096.0,621.0,4095.0,2122.0
2.199850082397461,2160.0,2241.0,901.0,4095.0,1854.0
2.200066089630127,2410.0,2224.0,966.0,4095.0,4095.0
2.205747127532959,2516.0,2175.0,1137.0,4095.0,656.0
2.205965995788574,2266.0,2094.0,1397.0,4095.0,553.0
2.210872173309326,2467.0,2010.0,1370.0,4095.0,3120.0
2.2110791206359863,2529.0,1839.0,1487.0,4095.0,626.0
2.216790199279785,2549.0,2097.0,1914.0,4095.0,4095.0
2.216992139816284,2315.0,2028.0,1871.0,4095.0,720.0
2.221696138381958,2480.0,1859.0,1895.0,4095.0,605.0
2.2219200134277344,1687.0,1513.0,1825.0,4095.0,4095.0
2.2278008460998535,2331.0,2233.0,1776.0,4095.0,3601.0
2.228024959564209,2512.0,2220.0,1777.0,4095.0,4095.0
2.232795000076294,2466.0,1625.0,647.0,4095.0,703.0
2.233020067214966,2106.0,2255.0,657.0,4095.0,1438.0
2.238668203353882,2458.0,2235.0,687.0,4095.0,4095.0
2.23887300491333,2528.0,2199.0,768.0,4095.0,1918.0
2.2390520572662354,2237.0,2110.0,812.0,4095.0,592.0
2.2451579570770264,2475.0,2027.0,995.0,4095.0,725.0
2.2453739643096924,2454.0,2199.0,1697.0,4095.0,1798.0
2.249922275543213,2541.0,2157.0,1664.0,4095.0,4095.0
2.250120162963867,2286.0,2057.0,1796.0,4095.0,724.0
2.2559399604797363,2480.0,1904.0,1877.0,4095.0,682.0
2.2561991214752197,2511.0,1457.0,1846.0,4095.0,4095.0
2.2610080242156982,2342.0,2258.0,707.0,4095.0,1565.0
2.2614622116088867,2288.0,2023.0,593.0,4095.0,4095.0
2.266944169998169,2495.0,1933.0,616.0,4095.0,763.0
2.26718807220459,1598.0,1325.0,621.0,4095.0,1168.0
2.2717881202697754,2379.0,2229.0,624.0,4095.0,4095.0
2.272022008895874,2483.0,2219.0,663.0,4095.0,2768.0
2.2779531478881836,2079.0,2135.0,671.0,4095.0,4095.0
2.2782201766967773,1875.0,2268.0,1183.0,4095.0,503.0
2.2828071117401123,2359.0,2213.0,1135.0,4095.0,2288.0
2.2830560207366943,2504.0,2199.0,1248.0,4095.0,4095.0
2.2887649536132812,2173.0,2135.0,1321.0,4095.0,1063.0
2.2890000343322754,2464.0,2065.0,1488.0,4095.0,739.0
2.294914960861206,2404.0,2214.0,1712.0,4095.0,493.0
2.2952721118927,2489.0,2187.0,1707.0,4095.0,4095.0
2.2999250888824463,2227.0,2117.0,1771.0,4095.0,4095.0
2.300163984298706,2414.0,2007.0,1945.0,4095.0,844.0
2.305875062942505,2539.0,1834.0,1889.0,4095.0,640.0
2.3061089515686035,2266.0,1504.0,1882.0,4095.0,562.0
2.3110191822052,2238.0,2032.0,848.0,4095.0,4095.0
2.3112778663635254,2499.0,1874.0,802.0,4095.0,3902.0
2.31685209274292,2554.0,1585.0,987.0,4095.0,533.0
2.317095994949341,2346.0,2246.0,1058.0,4095.0,1744.0
2.32169508934021,2512.0,2215.0,1119.0,4095.0,4095.0
2.321934938430786,1958.0,2175.0,1123.0,4095.0,2979.0
2.327899932861328,1695.0,2242.0,1800.0,4095.0,897.0
2.328162908554077,2378.0,2224.0,1805.0,4095.0,545.0
2.3328001499176025,2515.0,2190.0,1783.0,4095.0,2750.0
2.3330681324005127,2109.0,2106.0,1878.0,4095.0,4095.0
2.338829278945923,2407.0,2020.0,1837.0,4095.0,995.0
2.3391339778900146,2541.0,1875.0,1837.0,4095.0,2960.0
2.3448240756988525,2525.0,2107.0,659.0,4095.0,672.0
2.3452601432800293,2182.0,2053.0,655.0,4095.0,4095.0
2.34985613822937,2441.0,1901.0,707.0,4095.0,4095.0
2.3501031398773193,2531.0,1359.0,755.0,4095.0,592.0
2.3503289222717285,2266.0,2251.0,771.0,4095.0,1091.0
2.355875015258789,2480.0,2223.0,1818.0,4095.0,564.0
2.356117010116577,2479.0,1789.0,1369.0,4095.0,4095.0
2.3610031604766846,2553.0,2250.0,1439.0,4095.0,2526.0
2.361248016357422,2333.0,2245.0,1501.0,4095.0,592.0
2.3671140670776367,2499.0,2221.0,1615.0,4095.0,2139.0
2.3674161434173584,1669.0,2145.0,1627.0,4095.0,4095.0
2.3720569610595703,2381.0,1894.0,953.0,4095.0,4095.0
2.3723511695861816,2363.0,2239.0,1817.0,4095.0,761.0
2.37807297706604,2515.0,2172.0,1890.0,4095.0,621.0
2.378469944000244,2112.0,2097.0,1837.0,4095.0,3846.0
2.382934093475342,2407.0,2000.0,1809.0,4095.0,4095.0
2.3831708431243896,2531.0,1831.0,1826.0,4095.0,636.0
2.3889291286468506,2528.0,2125.0,770.0,4095.0,798.0
2.3892219066619873,2182.0,2065.0,814.0,4095.0,1059.0
2.3950202465057373,2423.0,1889.0,853.0,4095.0,4095.0
2.3954570293426514,2549.0,1301.0,959.0,4095.0,3503.0
2.3999781608581543,2283.0,2256.0,1040.0,4095.0,675.0
2.400299072265625,2496.0,2205.0,1287.0,4095.0,1747.0
2.4058730602264404,2491.0,1735.0,1747.0,4095.0,1311.0
2.4061808586120605,2539.0,2266.0,1591.0,4095.0,4095.0
2.4110090732574463,2330.0,2240.0,1637.0,4095.0,2420.0
2.4113428592681885,2508.0,2224.0,1559.0,4095.0,710.0
2.4169650077819824,1663.0,2134.0,1593.0,4095.0,1703.0
2.4172072410583496,2377.0,2067.0,1708.0,4095.0,805.0
2.4218692779541016,2355.0,2241.0,813.0,4095.0,4095.0
2.422163963317871,2502.0,2191.0,802.0,4095.0,1133.0
2.427994966506958,1969.0,2114.0,935.0,4095.0,633.0
2.4283759593963623,2395.0,2000.0,1005.0,4095.0,4095.0
2.432812213897705,2536.0,1808.0,1088.0,4095.0,4095.0
2.433048963546753,2201.0,2263.0,720.0,4095.0,4095.0
2.438750982284546,2171.0,2042.0,1793.0,4095.0,878.0
2.439055919647217,2457.0,1909.0,1872.0,4095.0,1008.0
2.4449570178985596,2544.0,1693.0,1856.0,4095.0,4095.0
2.445268154144287,2282.0,2259.0,1883.0,4095.0,2871.0
2.449880838394165,2498.0,2221.0,1829.0,4095.0,733.0
2.4501800537109375,2559.0,2023.0,1182.0,4095.0,740.0
2.455721139907837,2553.0,2270.0,726.0,4095.0,1994.0
2.4560320377349854,2323.0,2255.0,880.0,4095.0,4095.0
2.4608569145202637,2503.0,2208.0,983.0,4095.0,2256.0
2.461182117462158,1859.0,2128.0,1013.0,4095.0,511.0
2.4668359756469727,2368.0,2122.0,1279.0,4095.0,2905.0
2.4670801162719727,2529.0,2195.0,1355.0,4095.0,1518.0
2.471682071685791,2519.0,2111.0,1585.0,4095.0,4095.0
2.471980094909668,2057.0,2069.0,1575.0,4095.0,607.0
2.477804183959961,2411.0,2032.0,1535.0,4095.0,627.0
2.478055000305176,2543.0,1529.0,1506.0,4095.0,4095.0
2.4827470779418945,2171.0,2246.0,1643.0,4095.0,1616.0
2.483207941055298,2143.0,2030.0,683.0,4095.0,3574.0
2.4835150241851807,2444.0,1872.0,727.0,4095.0,624.0
2.489084005355835,2559.0,2256.0,789.0,4095.0,1584.0
2.489377021789551,2277.0,2251.0,761.0,4095.0,4095.0
2.4949870109558105,2507.0,2249.0,771.0,4095.0,1956.0
2.4952330589294434,2559.0,2177.0,875.0,4095.0,4095.0
2.499929904937744,2558.0,2278.0,1713.0,4095.0,629.0
2.5002360343933105,2348.0,2246.0,1691.0,4095.0,2149.0
2.5059568881988525,2521.0,2209.0,1728.0,4095.0,4095.0
2.506253957748413,1883.0,2090.0,1574.0,4095.0,687.0
2.5109190940856934,2391.0,2064.0,1621.0,4095.0,546.0
2.5111660957336426,2554.0,1895.0,1479.0,4095.0,668.0
2.516901969909668,2534.0,2175.0,674.0,4095.0,3422.0
2.5171432495117188,1936.0,2126.0,701.0,4095.0,4095.0
2.521768093109131,2419.0,1999.0,727.0,4095.0,686.0
2.521998882293701,2542.0,1765.0,829.0,4095.0,1213.0
2.527827024459839,2203.0,2289.0,815.0,4095.0,4095.0
2.5280821323394775,2475.0,2258.0,846.0,4095.0,2202.0
2.532788038253784,2428.0,1882.0,1706.0,4095.0,3105.0
2.5330560207366943,2559.0,2274.0,1781.0,4095.0,687.0
2.538806200027466,2287.0,2267.0,1733.0,4095.0,1771.0
2.5391111373901367,2497.0,2273.0,1747.0,4095.0,4095.0
2.5449230670928955,2559.0,2163.0,1679.0,4095.0,1318.0
2.545196056365967,2356.0,2133.0,1875.0,4095.0,4095.0
2.5499520301818848,2341.0,2254.0,757.0,4095.0,749.0
2.5501980781555176,2521.0,2206.0,773.0,4095.0,2122.0
2.555793046951294,1744.0,2131.0,762.0,4095.0,4095.0
2.5560190677642822,2395.0,2069.0,815.0,4095.0,752.0
2.5608301162719727,2549.0,1875.0,904.0,4095.0,655.0
2.5610740184783936,2113.0,2256.0,1745.0,4095.0,646.0
2.566735029220581,1904.0,2067.0,1570.0,4095.0,3557.0
2.566981077194214,2407.0,1936.0,1517.0,4095.0,4095.0
2.571751117706299,2548.0,1535.0,1522.0,4095.0,759.0
2.5720551013946533,2177.0,2275.0,1535.0,4095.0,1232.0
2.5779800415039062,2455.0,2256.0,1638.0,4095.0,4095.0
2.5782430171966553,2427.0,1808.0,1792.0,4095.0,4095.0
2.582996129989624,2558.0,2287.0,1152.0,4095.0,2117.0
2.583246946334839,2273.0,2257.0,626.0,4095.0,785.0
2.588963031768799,2494.0,2238.0,592.0,4095.0,2177.0
2.5891730785369873,2559.0,2129.0,649.0,4095.0,4095.0
2.589405059814453,2335.0,2092.0,624.0,4095.0,4095.0
2.5952541828155518,2335.0,2268.0,1181.0,4095.0,928.0
2.595442056655884,2539.0,2222.0,1293.0,4095.0,533.0
2.5999441146850586,2336.0,2128.0,1377.0,4095.0,4095.0
2.6002941131591797,2387.0,2081.0,1403.0,4095.0,3268.0
2.605975866317749,2539.0,1935.0,1517.0,4095.0,766.0
2.6062190532684326,2046.0,1359.0,1521.0,4095.0,703.0
2.6109251976013184,1823.0,2118.0,1723.0,4095.0,1903.0
2.611091136932373,2421.0,2007.0,1773.0,4095.0,4095.0
2.6168689727783203,2555.0,1803.0,1689.0,4095.0,912.0
2.617032051086426,2171.0,2274.0,1675.0,4095.0,477.0
2.6217360496520996,2450.0,2259.0,1713.0,4095.0,3841.0
2.6218810081481934,2557.0,2231.0,607.0,4095.0,1490.0
2.6290059089660645,2559.0,1659.0,927.0,4095.0,3141.0
2.6291580200195312,2229.0,2282.0,906.0,4095.0,797.0
2.634706974029541,2495.0,2250.0,874.0,4095.0,1577.0
2.634857177734375,2559.0,2224.0,944.0,4095.0,4095.0
2.641324043273926,2336.0,2147.0,1013.0,4095.0,861.0
2.6414990425109863,2534.0,2077.0,722.0,4095.0,3884.0
2.6448771953582764,2517.0,2240.0,1678.0,4095.0,502.0
2.6450588703155518,2559.0,2175.0,1664.0,4095.0,3451.0
2.649930000305176,2363.0,2103.0,1791.0,4095.0,3990.0
2.6501688957214355,2531.0,2003.0,1840.0,4095.0,775.0
2.65633225440979,1698.0,1781.0,1870.0,4095.0,531.0
2.656597137451172,2409.0,2179.0,1000.0,4095.0,560.0
2.661442995071411,2404.0,2047.0,747.0,4095.0,4095.0
2.6617438793182373,2547.0,1904.0,769.0,4095.0,1365.0
2.666918992996216,2139.0,1602.0,802.0,4095.0,631.0
2.667172908782959,2418.0,2225.0,848.0,4095.0,2972.0
2.6718621253967285,2559.0,2227.0,886.0,4095.0,3555.0
2.672153949737549,2213.0,2246.0,969.0,4095.0,4095.0
2.677932024002075,2192.0,2262.0,1456.0,4095.0,610.0
2.678377151489258,2466.0,2244.0,1523.0,4095.0,1588.0
2.6828110218048096,2559.0,2216.0,1587.0,4095.0,4095.0
2.6829309463500977,2298.0,2141.0,1757.0,4095.0,822.0
2.6888270378112793,2517.0,2064.0,1820.0,4095.0,679.0
2.688939094543457,2494.0,2214.0,699.0,4095.0,490.0
2.6949470043182373,2559.0,2183.0,640.0,4095.0,4095.0
2.6952788829803467,2347.0,2103.0,636.0,4095.0,2761.0
2.6953771114349365,2537.0,1997.0,645.0,4095.0,733.0
2.700124979019165,1824.0,1877.0,715.0,4095.0,946.0
2.7002341747283936,2411.0,2164.0,744.0,4095.0,4095.0
2.705796003341675,2416.0,2042.0,1150.0,4095.0,3999.0
2.7058990001678467,2549.0,1949.0,1194.0,4095.0,746.0
2.7108371257781982,2176.0,1637.0,1201.0,4095.0,1100.0
2.710948944091797,2436.0,2271.0,1287.0,4095.0,4095.0
2.7167320251464844,2556.0,2222.0,1239.0,4095.0,1153.0
2.71683406829834,2263.0,2207.0,1326.0,4095.0,2827.0
2.7217161655426025,2223.0,2259.0,1822.0,4095.0,718.0
2.7218329906463623,2474.0,2245.0,1862.0,4095.0,4095.0
2.7279839515686035,2551.0,2217.0,1776.0,4095.0,1783.0
2.728101968765259,2311.0,2146.0,1816.0,4095.0,641.0
2.7327539920806885,2507.0,2083.0,1770.0,4095.0,1879.0
2.73284912109375,2480.0,1979.0,1130.0,4095.0,931.0
2.7387499809265137,2556.0,2208.0,815.0,4095.0,3071.0
2.738845109939575,2352.0,2126.0,837.0,4095.0,683.0
2.744770050048828,2515.0,2039.0,1079.0,4095.0,1059.0
2.7448740005493164,1701.0,1906.0,1072.0,4095.0,4095.0
2.749743938446045,2411.0,1312.0,1247.0,4095.0,713.0
2.749830961227417,2512.0,2255.0,973.0,4095.0,2198.0
2.7556869983673096,2512.0,1952.0,1731.0,4095.0,733.0
2.755784034729004,2064.0,1507.0,1695.0,4095.0,4095.0
2.7607719898223877,2400.0,2275.0,1740.0,4095.0,1195.0
2.760869026184082,2529.0,2245.0,1681.0,4095.0,661.0
2.7668190002441406,2215.0,2228.0,1674.0,4095.0,2060.0
2.7669148445129395,2173.0,2261.0,689.0,4095.0,3541.0
2.771754026412964,2445.0,2271.0,811.0,4095.0,1478.0
2.771851062774658,2541.0,2224.0,779.0,4095.0,606.0
2.777750015258789,2234.0,2171.0,828.0,4095.0,2047.0
2.777853012084961,2470.0,2094.0,841.0,4095.0,4095.0
2.7827558517456055,2545.0,1968.0,983.0,4095.0,590.0
2.7828481197357178,2330.0,2208.0,1663.0,4095.0,705.0
2.788666009902954,2320.0,2112.0,1709.0,4095.0,1678.0
2.7887701988220215,2489.0,2035.0,1682.0,4095.0,4095.0
2.799651861190796,1662.0,1877.0,1671.0,4095.0,611.0
2.7997710704803467,2361.0,1840.0,1665.0,4095.0,555.0
2.799873113632202,2512.0,2259.0,1730.0,4095.0,486.0
2.799976110458374,2509.0,1951.0,815.0,4095.0,4095.0
2.8057308197021484,1969.0,1689.0,1083.0,4095.0,645.0
2.80584716796875,2373.0,2265.0,1137.0,4095.0,548.0
2.8107481002807617,2507.0,2246.0,1083.0,4095.0,3282.0
2.810882806777954,2160.0,2215.0,1058.0,4095.0,3071.0
2.8166730403900146,2447.0,2115.0,1106.0,4095.0,1335.0
2.8167829513549805,2391.0,2256.0,1534.0,4095.0,555.0
2.8168880939483643,2510.0,2224.0,1506.0,4095.0,3057.0
2.8217411041259766,2223.0,2143.0,1579.0,4095.0,3127.0
2.8218472003936768,2454.0,2081.0,1653.0,4095.0,741.0
2.8277931213378906,2528.0,1946.0,1826.0,4095.0,626.0
2.8279080390930176,2307.0,1738.0,1776.0,4095.0,480.0
2.8327279090881348,2240.0,2104.0,787.0,4095.0,3538.0
2.8328399658203125,2389.0,2065.0,799.0,4095.0,877.0
2.8387930393218994,2348.0,1904.0,852.0,4095.0,592.0
2.838912010192871,2310.0,1517.0,1022.0,4095.0,4095.0
2.8447859287261963,2465.0,2239.0,1107.0,4095.0,1151.0
2.8449082374572754,1947.0,2224.0,658.0,4095.0,774.0
2.849790096282959,1682.0,1471.0,1863.0,4095.0,597.0
2.8499128818511963,2306.0,2262.0,1821.0,4095.0,4095.0
2.8558101654052734,2443.0,2247.0,1807.0,4095.0,880.0
2.8559210300445557,2055.0,2211.0,1872.0,4095.0,730.0
2.860795021057129,2320.0,2129.0,1783.0,4095.0,2080.0
2.8609092235565186,2448.0,2262.0,719.0,4095.0,3664.0
2.8667778968811035,2411.0,2242.0,805.0,4095.0,788.0
2.8668859004974365,2016.0,2183.0,849.0,4095.0,720.0
2.871738910675049,2290.0,2112.0,887.0,4095.0,3026.0
2.871842861175537,2377.0,1990.0,973.0,4095.0,1903.0
2.877763032913208,2164.0,1679.0,1017.0,4095.0,658.0
2.8778810501098633,2350.0,2273.0,649.0,4095.0,591.0
2.8828749656677246,2308.0,2066.0,1664.0,4095.0,3600.0
2.8829920291900635,2352.0,1947.0,1643.0,4095.0,1152.0
2.8887178897857666,2160.0,1343.0,1669.0,4095.0,649.0
2.888835906982422,2381.0,2269.0,1659.0,4095.0,2357.0
2.894773006439209,1456.0,2255.0,1744.0,4095.0,3110.0
2.894906997680664,1377.0,1791.0,1886.0,4095.0,1296.0
2.899745225906372,2143.0,2288.0,1791.0,4095.0,601.0
2.8998942375183105,2291.0,2262.0,855.0,4095.0,2282.0
2.9058001041412354,1859.0,2230.0,597.0,4095.0,4095.0
2.9059159755706787,2160.0,2125.0,617.0,4095.0,599.0
2.9107720851898193,2301.0,2077.0,657.0,4095.0,785.0
2.910896062850952,2286.0,2255.0,1407.0,4095.0,2365.0
2.916792154312134,1991.0,2195.0,1326.0,4095.0,2261.0
2.916912078857422,2173.0,2119.0,1327.0,4095.0,618.0
2.9170219898223877,2270.0,2013.0,1393.0,4095.0,690.0
2.9218590259552,2032.0,1790.0,1437.0,4095.0,4095.0
2.9219841957092285,2225.0,2288.0,1535.0,4095.0,4095.0
2.9285640716552734,2205.0,2039.0,1795.0,4095.0,569.0
2.9286952018737793,1313.0,1933.0,1793.0,4095.0,1605.0
2.9328579902648926,2036.0,1648.0,1815.0,4095.0,4095.0
2.9329612255096436,2192.0,2288.0,1959.0,4095.0,924.0
2.9388041496276855,1696.0,2261.0,1879.0,4095.0,497.0
2.938913106918335,2071.0,2217.0,704.0,4095.0,603.0
3.0221240520477295,2002.0,2295.0,898.0,4095.0,4095.0
3.0222280025482178,2173.0,2276.0,931.0,4095.0,905.0
3.0223162174224854,1807.0,2250.0,997.0,4095.0,496.0
3.022408962249756,2085.0,2141.0,1039.0,4095.0,3659.0
3.022500991821289,2192.0,2121.0,1078.0,4095.0,1286.0
3.022590160369873,1895.0,1966.0,631.0,4095.0,1967.0
3.022696018218994,1859.0,2243.0,1797.0,4095.0,478.0
3.022792100906372,2103.0,2160.0,1849.0,4095.0,3775.0
3.022883892059326,2188.0,2096.0,1814.0,4095.0,1523.0
3.0229721069335938,1930.0,1914.0,1873.0,4095.0,725.0
3.023062229156494,2144.0,2304.0,1840.0,4095.0,1845.0
3.023153066635132,2002.0,2242.0,1152.0,4095.0,2465.0
3.0232410430908203,2183.0,2064.0,809.0,4095.0,1059.0
3.023331880569458,1971.0,1847.0,1007.0,4095.0,694.0
3.023427963256836,2148.0,2279.0,1040.0,4095.0,2719.0
3.0235228538513184,1303.0,2290.0,1058.0,4095.0,2320.0
3.0236129760742188,2015.0,2256.0,1280.0,4095.0,627.0
3.023703098297119,1974.0,1358.0,1744.0,4095.0,678.0
3.023797035217285,2151.0,2288.0,1730.0,4095.0,3457.0
3.023890972137451,1634.0,2263.0,1761.0,4095.0,1501.0
3.023980140686035,2019.0,2230.0,1809.0,4095.0,605.0
3.024070978164673,2159.0,2147.0,1840.0,4095.0,1834.0
3.0241611003875732,1811.0,2077.0,1168.0,4095.0,2122.0
3.024245023727417,1802.0,2249.0,760.0,4095.0,639.0
3.0243301391601562,2058.0,2187.0,841.0,4095.0,565.0
3.024418830871582,2189.0,2110.0,1008.0,4095.0,2682.0
3.02451491355896,1904.0,2000.0,1197.0,4095.0,2957.0
3.0246059894561768,2128.0,1728.0,1207.0,4095.0,774.0
3.0246942043304443,2203.0,2294.0,1198.0,4095.0,545.0
3.0247859954833984,2201.0,2080.0,1858.0,4095.0,3943.0
3.0277998447418213,1936.0,1920.0,1933.0,4095.0,883.0
3.027905225753784,2154.0,1715.0,1907.0,4095.0,763.0
3.032711982727051,1246.0,2285.0,1958.0,4095.0,2507.0
3.032815933227539,2001.0,2257.0,1867.0,4095.0,2183.0
3.0387940406799316,2161.0,2217.0,1489.0,4095.0,735.0
3.0388948917388916,2175.0,2298.0,629.0,4095.0,915.0
3.044865131378174,1737.0,2276.0,731.0,4095.0,3324.0
3.0449750423431396,2061.0,2256.0,782.0,4095.0,662.0
3.0450620651245117,2192.0,2186.0,907.0,4095.0,587.0
3.0498111248016357,1846.0,2106.0,806.0,4095.0,3109.0
3.0499112606048584,2101.0,1984.0,1745.0,4095.0,3423.0
3.0558009147644043,2091.0,2224.0,1415.0,4095.0,592.0
3.0559089183807373,2176.0,2127.0,1436.0,4095.0,1603.0
3.062307834625244,1904.0,2018.0,1660.0,4095.0,3673.0
3.062413215637207,2165.0,1822.0,1676.0,4095.0,913.0
3.0670621395111084,2191.0,2285.0,1535.0,4095.0,497.0
3.067315101623535,1954.0,1667.0,1761.0,4095.0,1776.0
3.072075128555298,1871.0,1927.0,1806.0,4095.0,829.0
3.0724129676818848,2130.0,1408.0,1840.0,4095.0,752.0
3.0786221027374268,1834.0,2277.0,960.0,4095.0,2457.0
3.0791499614715576,1962.0,2245.0,695.0,4095.0,2149.0
3.0833182334899902,2145.0,2231.0,594.0,4095.0,651.0
3.0836989879608154,1623.0,2112.0,1759.0,4095.0,567.0
3.089367151260376,1451.0,2271.0,1036.0,4095.0,2800.0
3.0895912647247314,2011.0,2241.0,1073.0,4095.0,630.0
3.0954411029815674,2109.0,2194.0,1215.0,4095.0,576.0
3.095797061920166,1775.0,2098.0,1296.0,4095.0,3760.0
3.0998470783233643,2055.0,1986.0,1517.0,4095.0,935.0
3.0999481678009033,2053.0,2209.0,1605.0,4095.0,555.0
3.106039047241211,2118.0,2128.0,1735.0,4095.0,2330.0
3.1061460971832275,1872.0,2047.0,1735.0,4095.0,2931.0
3.1108391284942627,2110.0,1903.0,1755.0,4095.0,818.0
3.1109530925750732,2160.0,2002.0,1686.0,4095.0,717.0
3.1173839569091797,1945.0,2280.0,1732.0,4095.0,2671.0
3.1177690029144287,1908.0,1927.0,880.0,4095.0,720.0
3.1231088638305664,2135.0,1379.0,910.0,4095.0,829.0
3.1232690811157227,1969.0,2273.0,1071.0,4095.0,2775.0
3.127790927886963,1980.0,2253.0,1120.0,4095.0,681.0
3.127901077270508,2107.0,2183.0,1134.0,4095.0,593.0
3.132768154144287,1615.0,2128.0,1338.0,4095.0,1474.0
3.1328680515289307,1426.0,2261.0,1407.0,4095.0,618.0
3.1387269496917725,1995.0,2227.0,1572.0,4095.0,565.0
3.1388230323791504,2181.0,2124.0,1424.0,4095.0,2317.0
3.144753932952881,1739.0,2054.0,1621.0,4095.0,2721.0
3.1448709964752197,2027.0,1963.0,1664.0,4095.0,798.0
3.1497890949249268,2099.0,1321.0,1734.0,4095.0,589.0
3.1501550674438477,2157.0,2139.0,671.0,4095.0,3623.0
3.150244951248169,1803.0,1999.0,708.0,4095.0,751.0
3.1558899879455566,2039.0,1814.0,705.0,4095.0,861.0
3.1559948921203613,2165.0,2282.0,749.0,4095.0,3053.0
3.160836935043335,1872.0,2230.0,844.0,4095.0,640.0
3.160943031311035,2099.0,2225.0,1757.0,4095.0,533.0
3.1668150424957275,2069.0,1424.0,1535.0,4095.0,3257.0
3.1669259071350098,2166.0,2265.0,1595.0,4095.0,677.0
3.1719372272491455,1905.0,2187.0,1583.0,4095.0,585.0
3.1720499992370605,2074.0,2192.0,1688.0,4095.0,2743.0
3.1778409481048584,1585.0,2131.0,1669.0,4095.0,1906.0
3.1779489517211914,1969.0,2257.0,1771.0,4095.0,606.0
3.182961940765381,1951.0,2213.0,1681.0,4095.0,2295.0
3.1830880641937256,2122.0,2145.0,1735.0,4095.0,2097.0
3.188892126083374,1631.0,2037.0,1667.0,4095.0,750.0
3.1890058517456055,1968.0,1967.0,1649.0,4095.0,1305.0
3.194890022277832,2153.0,1771.0,1456.0,4095.0,2090.0
3.1950230598449707,2135.0,2116.0,899.0,4095.0,667.0
3.199777126312256,1728.0,2039.0,861.0,4095.0,2157.0
3.199877977371216,2040.0,1909.0,923.0,4095.0,1828.0
3.205810070037842,2146.0,1375.0,1225.0,4095.0,608.0
3.2059102058410645,1899.0,2244.0,1265.0,4095.0,831.0
3.2108280658721924,2093.0,2215.0,1353.0,4095.0,3895.0
3.210930109024048,2079.0,1578.0,1761.0,4095.0,816.0
3.216783046722412,2129.0,2235.0,1734.0,4095.0,1689.0
3.2168819904327393,1926.0,2193.0,1618.0,4095.0,2146.0
3.221846103668213,2085.0,2177.0,1621.0,4095.0,681.0
3.2219479084014893,1302.0,2112.0,1636.0,4095.0,1631.0
3.2278218269348145,1951.0,2020.0,1663.0,4095.0,2839.0
3.2279200553894043,1943.0,2191.0,734.0,4095.0,624.0
3.2327609062194824,2105.0,2129.0,880.0,4095.0,1394.0
3.232846975326538,1614.0,2029.0,848.0,4095.0,3374.0
3.23877215385437,1968.0,1954.0,892.0,4095.0,555.0
3.2388648986816406,2112.0,1756.0,1252.0,4095.0,876.0
3.2447519302368164,1748.0,2199.0,1337.0,4095.0,2723.0
3.2448599338531494,1741.0,1968.0,1719.0,4095.0,742.0
3.249704122543335,1999.0,1783.0,1741.0,4095.0,985.0
3.2498021125793457,2119.0,1702.0,1789.0,4095.0,2299.0
3.255722999572754,1840.0,2182.0,1831.0,4095.0,657.0
3.2558400630950928,2044.0,2169.0,1776.0,4095.0,1059.0
3.2608039379119873,2127.0,2096.0,830.0,4095.0,2713.0
3.260915994644165,2111.0,2194.0,704.0,4095.0,576.0
3.2610220909118652,1895.0,2151.0,791.0,4095.0,2127.0
3.2668051719665527,2078.0,2146.0,764.0,4095.0,2457.0
3.2669060230255127,1283.0,2054.0,778.0,4095.0,835.0
3.271728992462158,1907.0,1987.0,872.0,4095.0,1173.0
3.271826982498169,2079.0,1821.0,1229.0,4095.0,2800.0
3.2778539657592773,2082.0,2096.0,1889.0,4095.0,699.0
3.277971029281616,1623.0,2015.0,1869.0,4095.0,2486.0
3.2828261852264404,1942.0,1902.0,1889.0,4095.0,717.0
3.282918930053711,2086.0,1691.0,1943.0,4095.0,588.0
3.2888190746307373,1759.0,2188.0,1936.0,4095.0,2242.0
3.28891921043396,2027.0,2121.0,1431.0,4095.0,688.0
3.294872999191284,1994.0,1791.0,725.0,4095.0,497.0
3.294985055923462,2102.0,1968.0,816.0,4095.0,3085.0
3.29980206489563,1819.0,2171.0,869.0,4095.0,706.0
3.299903154373169,2039.0,2150.0,1125.0,4095.0,656.0
3.3057072162628174,2096.0,2061.0,985.0,4095.0,3228.0
3.30580997467041,1844.0,2160.0,1898.0,4095.0,656.0
3.3108370304107666,1875.0,2140.0,1795.0,4095.0,1157.0
3.3109772205352783,2062.0,2086.0,1791.0,4095.0,3053.0
3.316768169403076,1181.0,2003.0,1845.0,4095.0,847.0
3.3168740272521973,1891.0,1929.0,1877.0,4095.0,565.0
3.3217530250549316,2081.0,1776.0,1852.0,4095.0,2657.0
3.321864128112793,2097.0,2046.0,827.0,4095.0,688.0
3.3278400897979736,1648.0,1959.0,807.0,4095.0,2241.0
3.327950954437256,1914.0,1873.0,833.0,4095.0,717.0
3.3327090740203857,2078.0,1659.0,859.0,4095.0,595.0
3.3328120708465576,1776.0,2160.0,1001.0,4095.0,2119.0
3.3388619422912598,2032.0,2130.0,1121.0,4095.0,880.0
3.3389720916748047,1996.0,1815.0,1484.0,4095.0,630.0
3.3447470664978027,2127.0,1431.0,1574.0,4095.0,2758.0
3.3448421955108643,1868.0,2168.0,1605.0,4095.0,688.0
3.3497190475463867,2064.0,2138.0,1507.0,4095.0,701.0
3.349807024002075,2008.0,2099.0,1584.0,4095.0,3760.0
3.355813980102539,1937.0,2064.0,1483.0,4095.0,577.0
3.35591721534729,1917.0,2145.0,657.0,4095.0,2833.0
3.355998992919922,2101.0,2130.0,614.0,4095.0,995.0
3.360792875289917,1507.0,2101.0,616.0,4095.0,785.0
3.360896110534668,1982.0,2012.0,626.0,4095.0,2174.0
3.366842031478882,2119.0,1885.0,642.0,4095.0,733.0
3.3669378757476807,1741.0,1673.0,688.0,4095.0,547.0
3.371811866760254,1712.0,1994.0,1262.0,4095.0,3265.0
3.3719189167022705,1971.0,1909.0,1326.0,4095.0,577.0
3.3781089782714844,2131.0,1759.0,1447.0,4095.0,924.0
3.3782310485839844,1808.0,1956.0,1670.0,4095.0,2675.0
3.3828210830688477,2067.0,2151.0,1711.0,4095.0,793.0
3.3829309940338135,2137.0,2141.0,1729.0,4095.0,2755.0
3.388823986053467,2149.0,1499.0,1689.0,4095.0,642.0
3.388936996459961,1855.0,2219.0,1797.0,4095.0,582.0
3.3948540687561035,2091.0,2141.0,1813.0,4095.0,3197.0
3.3949992656707764,2133.0,2082.0,1911.0,4095.0,577.0
3.3997929096221924,1923.0,2037.0,1856.0,4095.0,560.0
3.399899959564209,2111.0,1919.0,1808.0,4095.0,1845.0
3.4057040214538574,2100.0,2140.0,786.0,4095.0,682.0
3.406015157699585,1179.0,2096.0,846.0,4095.0,2768.0
3.4109389781951904,1925.0,2016.0,811.0,4095.0,717.0
3.411189079284668,2103.0,1952.0,846.0,4095.0,589.0
3.4167251586914062,1649.0,1712.0,901.0,4095.0,2945.0
3.4168241024017334,2003.0,2123.0,1819.0,4095.0,597.0
3.42179799079895,1979.0,1936.0,1626.0,4095.0,1518.0
3.4219019412994385,2112.0,1775.0,1630.0,4095.0,1446.0
3.427809238433838,1699.0,2112.0,1651.0,4095.0,635.0
3.427917957305908,1994.0,2145.0,1779.0,4095.0,2155.0
3.4327099323272705,2128.0,2145.0,1811.0,4095.0,2496.0
3.4328091144561768,1804.0,1997.0,618.0,4095.0,578.0
3.4387569427490234,1786.0,2171.0,732.0,4095.0,1785.0
3.4388530254364014,2047.0,2143.0,742.0,4095.0,730.0
3.4390439987182617,2142.0,2110.0,759.0,4095.0,1899.0
3.445197820663452,1891.0,1978.0,803.0,4095.0,1535.0
3.445482015609741,2096.0,1930.0,830.0,4095.0,583.0
3.4498698711395264,1644.0,1227.0,1648.0,4095.0,2768.0
3.449979066848755,2146.0,2032.0,1502.0,4095.0,815.0
3.4558701515197754,1936.0,1973.0,1412.0,4095.0,1215.0
3.4559719562530518,2102.0,1836.0,1511.0,4095.0,1906.0
3.4608399868011475,1460.0,1230.0,1617.0,4095.0,669.0
3.460942029953003,1969.0,2174.0,1649.0,4095.0,1555.0
3.4667670726776123,1965.0,1956.0,1648.0,4095.0,595.0
3.466862916946411,2125.0,1779.0,1727.0,4095.0,622.0
3.471809148788452,1692.0,1401.0,1790.0,4095.0,2780.0
3.471903085708618,2000.0,2175.0,1808.0,4095.0,746.0
3.477997064590454,2133.0,2139.0,713.0,4095.0,1317.0
3.4780991077423096,1822.0,2100.0,701.0,4095.0,892.0
3.482733964920044,1783.0,2140.0,1047.0,4095.0,1349.0
3.482825994491577,2017.0,2160.0,1265.0,4095.0,2775.0
3.4887819290161133,2142.0,2133.0,1196.0,4095.0,659.0
3.4888811111450195,1890.0,2063.0,1337.0,4095.0,604.0
3.494818925857544,2081.0,1973.0,1353.0,4095.0,2431.0
3.4949240684509277,1524.0,1845.0,1705.0,4095.0,529.0
3.4997830390930176,2136.0,2083.0,624.0,4095.0,2485.0
3.499880075454712,1915.0,2010.0,622.0,4095.0,569.0
3.505803108215332,2106.0,1901.0,630.0,4095.0,1892.0
3.5059001445770264,1487.0,1723.0,637.0,4095.0,1499.0
3.5107438564300537,1969.0,2178.0,643.0,4095.0,741.0
3.5108449459075928,2117.0,2166.0,691.0,4095.0,2464.0
3.5167980194091797,2117.0,1760.0,1334.0,4095.0,592.0
3.516925096511841,1747.0,2173.0,1389.0,4095.0,2369.0
3.5217390060424805,2015.0,2165.0,1465.0,4095.0,1453.0
3.5218288898468018,2119.0,2145.0,1693.0,4095.0,511.0
3.5277740955352783,1859.0,2070.0,1761.0,4095.0,2261.0
3.5278680324554443,2064.0,1985.0,1378.0,4095.0,581.0
3.532731056213379,2075.0,2144.0,1777.0,4095.0,2845.0
3.5328221321105957,2126.0,2099.0,1728.0,4095.0,822.0
3.5387091636657715,1913.0,2000.0,720.0,4095.0,547.0
3.538808822631836,2093.0,1919.0,619.0,4095.0,2537.0
3.5448570251464844,1458.0,1763.0,604.0,4095.0,779.0
3.5449612140655518,1969.0,2169.0,1530.0,4095.0,2363.0
3.5450539588928223,1961.0,1959.0,1443.0,4095.0,689.0
3.5498268604278564,2109.0,1808.0,1327.0,4095.0,560.0
3.5499260425567627,1683.0,1651.0,1386.0,4095.0,3279.0
3.5558371543884277,1987.0,2162.0,1189.0,4095.0,823.0
3.5559492111206055,2096.0,2141.0,1217.0,4095.0,551.0
3.560792922973633,1817.0,2177.0,1738.0,4095.0,642.0
3.5609130859375,1787.0,2179.0,1705.0,4095.0,1827.0
3.566801071166992,2032.0,2155.0,1698.0,4095.0,2155.0
3.566908121109009,2129.0,2115.0,1659.0,4095.0,553.0
3.5717830657958984,1890.0,2032.0,1644.0,4095.0,1553.0
3.571897029876709,2079.0,1914.0,1712.0,4095.0,1381.0
3.5778000354766846,2078.0,2135.0,976.0,4095.0,2231.0
3.5779001712799072,2138.0,2057.0,1035.0,4095.0,661.0
3.582935094833374,1941.0,1995.0,1381.0,4095.0,567.0
3.5830328464508057,2114.0,1863.0,1401.0,4095.0,2478.0
3.5909910202026367,1584.0,1529.0,1402.0,4095.0,800.0
3.591093063354492,1981.0,2176.0,1419.0,4095.0,2501.0
3.5950429439544678,1978.0,1889.0,1757.0,4095.0,585.0
3.5951449871063232,2112.0,1695.0,1819.0,4095.0,1107.0
3.6001269817352295,1712.0,2181.0,1573.0,4095.0,2159.0
3.60037899017334,2000.0,2160.0,1643.0,4095.0,826.0
3.6058881282806396,2131.0,2128.0,1595.0,4095.0,855.0
3.605989933013916,1830.0,2084.0,1613.0,4095.0,576.0
3.611119031906128,1813.0,2169.0,734.0,4095.0,2822.0
3.6112191677093506,2058.0,2151.0,753.0,4095.0,893.0
3.6167900562286377,2157.0,2096.0,763.0,4095.0,533.0
3.6168830394744873,1907.0,2001.0,757.0,4095.0,2644.0
3.6217269897460938,2110.0,1935.0,833.0,4095.0,782.0
3.621826171875,1189.0,1757.0,1119.0,4095.0,2546.0
3.627892017364502,1626.0,2085.0,1785.0,4095.0,562.0
3.6279969215393066,1953.0,1995.0,1760.0,4095.0,1042.0
3.632755994796753,2119.0,1879.0,1765.0,4095.0,2161.0
3.632845163345337,1573.0,1535.0,1763.0,4095.0,734.0
3.638669967651367,2000.0,2181.0,1679.0,4095.0,1695.0
3.6387641429901123,2149.0,2167.0,688.0,4095.0,583.0
3.6447930335998535,2139.0,1845.0,811.0,4095.0,3024.0
3.644904136657715,1713.0,1242.0,797.0,4095.0,768.0
3.649662971496582,2032.0,2190.0,794.0,4095.0,781.0
3.6497721672058105,2175.0,2148.0,787.0,4095.0,2032.0
3.6498682498931885,1855.0,2109.0,859.0,4095.0,644.0
3.6558010578155518,2081.0,2015.0,715.0,4095.0,2683.0
3.6559271812438965,2070.0,2172.0,1562.0,4095.0,821.0
3.6607789993286133,2174.0,2134.0,1618.0,4095.0,1342.0
3.6608951091766357,1911.0,2037.0,1650.0,4095.0,746.0
3.666804075241089,2115.0,1984.0,1638.0,4095.0,637.0
3.666914224624634,1184.0,1831.0,1729.0,4095.0,2627.0
3.6717031002044678,1971.0,2157.0,838.0,4095.0,570.0
3.6718029975891113,1958.0,2013.0,704.0,4095.0,2014.0
3.677791118621826,2134.0,1888.0,666.0,4095.0,698.0
3.677896022796631,1664.0,1744.0,688.0,4095.0,1594.0
3.682772159576416,2000.0,2198.0,705.0,4095.0,719.0
3.6828629970550537,2163.0,2185.0,746.0,4095.0,587.0
3.688755989074707,1799.0,2159.0,1472.0,4095.0,707.0
3.6888620853424072,1776.0,1247.0,1384.0,4095.0,1776.0
3.6948401927948,2043.0,2207.0,1315.0,4095.0,663.0
3.6949641704559326,2159.0,2173.0,1330.0,4095.0,571.0
3.699704885482788,1871.0,2141.0,1424.0,4095.0,2178.0
3.6998260021209717,2086.0,2058.0,1472.0,4095.0,977.0
3.7056899070739746,2163.0,1936.0,1354.0,4095.0,2559.0
3.705792188644409,2174.0,2161.0,2034.0,4095.0,577.0
3.7108418941497803,1951.0,2064.0,1037.0,4095.0,1955.0
3.710952043533325,2135.0,1975.0,688.0,4095.0,1745.0
3.716809034347534,1413.0,1870.0,606.0,4095.0,793.0
3.7169201374053955,1951.0,1381.0,637.0,4095.0,1739.0
3.7217419147491455,1998.0,2032.0,1130.0,4095.0,592.0
3.7218639850616455,2150.0,1905.0,1262.0,4095.0,2960.0
3.7278389930725098,1664.0,1520.0,1277.0,4095.0,880.0
3.727982997894287,2038.0,2189.0,1389.0,4095.0,496.0
3.7327120304107666,2160.0,2192.0,1522.0,4095.0,2357.0
3.7328121662139893,1819.0,2161.0,1456.0,4095.0,615.0
3.7388031482696533,1763.0,2212.0,1744.0,4095.0,1023.0
3.7391130924224854,2006.0,2206.0,1757.0,4095.0,545.0
3.744731903076172,2161.0,2174.0,1790.0,4095.0,2283.0
3.744837999343872,1889.0,2128.0,1424.0,4095.0,715.0
3.7449350357055664,2112.0,2031.0,675.0,4095.0,688.0
3.75040602684021,2183.0,1925.0,598.0,4095.0,658.0
3.7505948543548584,2183.0,2155.0,1345.0,4095.0,2064.0
3.755876064300537,1957.0,2067.0,1681.0,4095.0,763.0
3.7559750080108643,2144.0,1967.0,1692.0,4095.0,695.0
3.7614850997924805,1259.0,1829.0,1679.0,4095.0,3059.0
3.7620849609375,2021.0,2096.0,1632.0,4095.0,619.0
3.767029047012329,2150.0,2202.0,1637.0,4095.0,2766.0
3.767282009124756,2160.0,1947.0,698.0,4095.0,704.0
3.7719130516052246,1711.0,1714.0,732.0,4095.0,2173.0
3.7720091342926025,2013.0,2222.0,725.0,4095.0,611.0
3.7778120040893555,2189.0,2192.0,845.0,4095.0,579.0
3.777914047241211,1855.0,2163.0,905.0,4095.0,2666.0
3.782702922821045,2100.0,2079.0,1078.0,4095.0,897.0
3.782792091369629,2095.0,2209.0,1723.0,4095.0,622.0
3.7888360023498535,2193.0,2187.0,1747.0,4095.0,571.0
3.788957118988037,1907.0,2127.0,1678.0,4095.0,2687.0
3.794814109802246,2122.0,2057.0,1867.0,4095.0,809.0
3.7949211597442627,2192.0,1957.0,1808.0,4095.0,527.0
3.7997379302978516,1986.0,1727.0,895.0,4095.0,720.0
3.7998249530792236,1986.0,2091.0,741.0,4095.0,2397.0
3.8057539463043213,2158.0,1997.0,798.0,4095.0,912.0
3.8058488368988037,1313.0,1842.0,753.0,4095.0,511.0
3.81083607673645,2032.0,1370.0,804.0,4095.0,2293.0
3.8109240531921387,2177.0,2214.0,880.0,4095.0,684.0
3.8167099952697754,1737.0,2191.0,1090.0,4095.0,2369.0
3.816801071166992,1698.0,1733.0,1584.0,4095.0,511.0
3.821768045425415,2043.0,2243.0,1524.0,4095.0,2304.0
3.821881055831909,2182.0,2198.0,1586.0,4095.0,676.0
3.827707052230835,1842.0,2174.0,1650.0,4095.0,660.0
3.8278350830078125,2105.0,2079.0,1757.0,4095.0,2918.0
3.827923059463501,2192.0,2027.0,1669.0,4095.0,705.0
3.8327388763427734,2171.0,2191.0,729.0,4095.0,849.0
3.832834243774414,1890.0,2141.0,755.0,4095.0,683.0
3.8388020992279053,2127.0,2057.0,783.0,4095.0,2481.0
3.8388900756835938,2192.0,1955.0,855.0,4095.0,592.0
3.8448500633239746,1981.0,1734.0,971.0,4095.0,565.0
3.844947099685669,2167.0,2223.0,1733.0,4095.0,827.0
3.8497202396392822,2151.0,2015.0,1733.0,4095.0,2832.0
3.849808931350708,1222.0,1867.0,1843.0,4095.0,579.0
3.855816125869751,2007.0,1290.0,1776.0,4095.0,538.0
3.8559250831604004,2169.0,2209.0,1778.0,4095.0,2621.0
3.8608851432800293,1718.0,2201.0,1741.0,4095.0,751.0
3.8609960079193115,2039.0,2187.0,1669.0,4095.0,1317.0
3.867846965789795,2036.0,2243.0,881.0,4095.0,524.0
3.8679940700531006,2171.0,2203.0,938.0,4095.0,2234.0
3.8723349571228027,1798.0,2177.0,1095.0,4095.0,714.0
3.8724381923675537,2075.0,2136.0,1039.0,4095.0,1347.0
3.877855062484741,2190.0,2033.0,1239.0,4095.0,806.0
3.8779542446136475,1904.0,1886.0,837.0,4095.0,464.0
3.88277006149292,1862.0,2155.0,1865.0,4095.0,884.0
3.8828649520874023,2099.0,2064.0,1900.0,4095.0,754.0
3.8887991905212402,2147.0,1990.0,1919.0,4095.0,2155.0
3.8889081478118896,1936.0,1807.0,1827.0,4095.0,685.0
3.89479398727417,2138.0,2230.0,1846.0,4095.0,609.0
3.8948960304260254,2149.0,2007.0,657.0,4095.0,817.0
3.899749994277954,2201.0,1891.0,687.0,4095.0,1527.0
3.899853229522705,1984.0,1291.0,720.0,4095.0,746.0
3.905769109725952,2170.0,2224.0,799.0,4095.0,649.0
3.9058761596679688,1612.0,2214.0,807.0,4095.0,2683.0
3.9059741497039795,2046.0,2162.0,795.0,4095.0,668.0
3.9108481407165527,2175.0,2238.0,1271.0,4095.0,2464.0
3.9109580516815186,2192.0,2213.0,1535.0,4095.0,650.0
3.91682505607605,1806.0,2203.0,1626.0,4095.0,1567.0
3.916959047317505,2087.0,2111.0,1639.0,4095.0,2414.0
3.9219391345977783,2223.0,2034.0,1797.0,4095.0,561.0
3.9220690727233887,1901.0,1886.0,1778.0,4095.0,947.0
3.928637981414795,1911.0,2124.0,656.0,4095.0,666.0
3.928802967071533,2171.0,2063.0,658.0,4095.0,3154.0
3.933310031890869,2258.0,1936.0,1074.0,4095.0,594.0
3.933418035507202,2000.0,1599.0,903.0,4095.0,553.0
3.9399399757385254,2211.0,2242.0,1033.0,4095.0,3018.0
3.940134048461914,1578.0,2249.0,1260.0,4095.0,1190.0
3.946007251739502,1904.0,1834.0,1669.0,4095.0,610.0
3.9461560249328613,2106.0,2260.0,1729.0,4095.0,589.0
3.950047016143799,2274.0,2247.0,1701.0,4095.0,2116.0
3.950192928314209,1790.0,2223.0,1903.0,4095.0,1106.0
3.9563679695129395,2163.0,2159.0,1827.0,4095.0,790.0
3.956470012664795,2311.0,2083.0,1744.0,4095.0,908.0
3.9613230228424072,2322.0,2231.0,781.0,4095.0,1053.0
3.9615209102630615,1942.0,2191.0,709.0,4095.0,2649.0
3.9670560359954834,2225.0,2112.0,748.0,4095.0,816.0
3.9671549797058105,2371.0,2047.0,804.0,4095.0,704.0
3.972280979156494,2043.0,1847.0,843.0,4095.0,2077.0
3.9723830223083496,2290.0,2256.0,939.0,4095.0,2496.0
3.9783830642700195,2279.0,2065.0,1426.0,4095.0,858.0
3.9784841537475586,2353.0,1925.0,1437.0,4095.0,511.0
3.983189105987549,2119.0,1493.0,1517.0,4095.0,2807.0
3.9832921028137207,2316.0,2252.0,1600.0,4095.0,682.0
3.991288185119629,2128.0,2245.0,1534.0,4095.0,647.0
3.991386890411377,2161.0,2205.0,1631.0,4095.0,594.0
3.9956040382385254,2161.0,1697.0,1870.0,4095.0,1711.0
3.9957048892974854,2333.0,2242.0,1871.0,4095.0,880.0
4.000082015991211,1775.0,2240.0,1857.0,4095.0,685.0
4.000397205352783,2197.0,2175.0,715.0,4095.0,2530.0
4.000607013702393,2333.0,2097.0,613.0,4095.0,622.0
4.006989240646362,1982.0,2015.0,1854.0,4095.0,2069.0
4.007088899612427,1929.0,2219.0,1138.0,4095.0,723.0
4.011606216430664,2219.0,2122.0,1062.0,4095.0,1342.0
4.011851072311401,2306.0,2071.0,1157.0,4095.0,989.0
4.0170581340789795,2039.0,1949.0,1075.0,4095.0,595.0
4.017186164855957,2272.0,1497.0,1046.0,4095.0,1763.0
4.0220911502838135,2343.0,2183.0,627.0,4095.0,538.0
4.022397041320801,2291.0,2019.0,1793.0,4095.0,2175.0
4.028806924819946,2110.0,1856.0,1941.0,4095.0,641.0
4.029250144958496,2284.0,1423.0,1982.0,4095.0,609.0
4.034574031829834,1403.0,2260.0,1916.0,4095.0,2810.0
4.034828186035156,2155.0,2218.0,1984.0,4095.0,704.0
4.0390448570251465,2108.0,1383.0,939.0,4095.0,902.0
4.039143085479736,2305.0,2307.0,933.0,4095.0,627.0
4.0448830127716064,1678.0,2253.0,1110.0,4095.0,2384.0
4.044982194900513,2165.0,2211.0,1005.0,4095.0,993.0
4.050036191940308,2318.0,2142.0,1100.0,4095.0,541.0
4.050137996673584,1936.0,2057.0,1153.0,4095.0,2614.0
4.055830240249634,1907.0,2249.0,1653.0,4095.0,2128.0
4.055927038192749,2183.0,2161.0,1724.0,4095.0,1042.0
4.060873985290527,2317.0,2123.0,1729.0,4095.0,560.0
4.060983180999756,2003.0,1974.0,1684.0,4095.0,2544.0
4.066788911819458,2251.0,1410.0,1685.0,4095.0,895.0
4.066888093948364,2303.0,2345.0,1707.0,4095.0,2848.0
4.071737051010132,2335.0,2095.0,985.0,4095.0,588.0
4.071828126907349,2083.0,1674.0,1023.0,4095.0,660.0
4.077804088592529,2272.0,2390.0,991.0,4095.0,2242.0
4.077907085418701,1385.0,2352.0,1106.0,4095.0,775.0
4.082752227783203,2149.0,2355.0,1197.0,4095.0,585.0
4.0828471183776855,2305.0,2320.0,1286.0,4095.0,784.0
4.08870792388916,2288.0,2496.0,1471.0,4095.0,1431.0
4.088804006576538,1667.0,2491.0,1472.0,4095.0,742.0
4.0948309898376465,2171.0,2431.0,1486.0,4095.0,1107.0
4.094935178756714,2317.0,2356.0,1481.0,4095.0,695.0
4.099663972854614,1933.0,2240.0,1609.0,4095.0,624.0
4.0997490882873535,2217.0,1733.0,787.0,4095.0,583.0
4.105695009231567,2192.0,2427.0,673.0,4095.0,736.0
4.105794191360474,2346.0,2361.0,679.0,4095.0,1479.0
4.105884075164795,2061.0,2096.0,720.0,4095.0,641.0
4.110850095748901,2275.0,2599.0,795.0,4095.0,1405.0
4.110956192016602,2319.0,2591.0,897.0,4095.0,2071.0
4.116816997528076,2151.0,2559.0,877.0,4095.0,1450.0
4.116923093795776,2125.0,1771.0,1447.0,4095.0,619.0
4.121804237365723,2295.0,2611.0,1526.0,4095.0,2687.0
4.121913909912109,1914.0,2588.0,1584.0,4095.0,922.0
4.12810206413269,2190.0,2522.0,1639.0,4095.0,532.0
4.128234148025513,2326.0,2455.0,1685.0,4095.0,2435.0
4.1327900886535645,1861.0,2375.0,1136.0,4095.0,1191.0
4.132886171340942,1851.0,2559.0,1871.0,4095.0,846.0
4.138733148574829,2183.0,2471.0,1824.0,4095.0,501.0
4.1388349533081055,2342.0,2394.0,1044.0,4095.0,2348.0
4.144763946533203,2005.0,2242.0,620.0,4095.0,663.0
4.144859075546265,2269.0,2640.0,606.0,4095.0,1169.0
4.149870872497559,2362.0,2503.0,1093.0,4095.0,548.0
4.149971008300781,2382.0,2359.0,1152.0,4095.0,2064.0
4.155847072601318,2085.0,2022.0,1059.0,4095.0,627.0
4.1559388637542725,2304.0,2655.0,1049.0,4095.0,1792.0
4.160842180252075,2385.0,2647.0,1104.0,4095.0,1007.0
4.1609461307525635,2172.0,2618.0,1160.0,4095.0,541.0
4.1668219566345215,2178.0,2688.0,1783.0,4095.0,586.0
4.166917085647583,2354.0,2690.0,1693.0,4095.0,2669.0
4.171694040298462,1491.0,2661.0,1665.0,4095.0,784.0
4.171789169311523,2235.0,2615.0,1723.0,4095.0,523.0
4.1778059005737305,2378.0,2519.0,1712.0,4095.0,931.0
4.177922964096069,1956.0,2434.0,1723.0,4095.0,2739.0
4.182878017425537,1946.0,2655.0,611.0,4095.0,722.0
4.182987213134766,2254.0,2557.0,786.0,4095.0,1377.0
4.188766002655029,2380.0,2503.0,1196.0,4095.0,617.0
4.188877105712891,2097.0,2367.0,1181.0,4095.0,560.0
4.194759130477905,2320.0,2448.0,1346.0,4095.0,2486.0
4.194874048233032,2404.0,2718.0,1210.0,4095.0,2432.0
4.1997230052948,2393.0,2493.0,1457.0,4095.0,560.0
4.199824094772339,2143.0,2063.0,1509.0,4095.0,2477.0
4.205688953399658,2343.0,2775.0,1635.0,4095.0,754.0
4.205790996551514,2405.0,2765.0,1639.0,4095.0,739.0
4.210726976394653,2150.0,2723.0,1771.0,4095.0,1857.0
4.210823059082031,2368.0,2637.0,1237.0,4095.0,2905.0
4.2169349193573,2373.0,2770.0,649.0,4095.0,718.0
4.217066049575806,1835.0,2754.0,658.0,4095.0,1459.0
4.217166900634766,2261.0,2722.0,679.0,4095.0,673.0
4.221792221069336,2388.0,2631.0,722.0,4095.0,599.0
4.221880912780762,2041.0,2538.0,913.0,4095.0,2128.0
4.227849006652832,2303.0,2323.0,1451.0,4095.0,496.0
4.227949142456055,2303.0,2631.0,1349.0,4095.0,641.0
4.232850074768066,2405.0,2549.0,1243.0,4095.0,594.0
4.23297381401062,2129.0,2386.0,1297.0,4095.0,2489.0
4.238892078399658,2361.0,2800.0,1359.0,4095.0,845.0
4.238992929458618,2423.0,2780.0,1466.0,4095.0,619.0
4.245026111602783,2209.0,2716.0,1503.0,4095.0,606.0
4.245143890380859,2198.0,1939.0,1735.0,4095.0,1553.0
4.2498390674591064,2393.0,2749.0,1690.0,4095.0,1747.0
4.2499542236328125,1518.0,2754.0,1696.0,4095.0,592.0
4.255772113800049,2273.0,2649.0,1483.0,4095.0,1968.0
4.255881071090698,2395.0,2627.0,618.0,4095.0,775.0
4.260869979858398,1993.0,2355.0,1722.0,4095.0,533.0
4.260984897613525,1881.0,2715.0,1002.0,4095.0,797.0
4.266844987869263,2343.0,2673.0,1042.0,4095.0,569.0
4.266958951950073,2465.0,2559.0,1108.0,4095.0,1633.0
4.27180814743042,2112.0,2439.0,1137.0,4095.0,2794.0
4.271916151046753,2390.0,1990.0,1225.0,4095.0,759.0
4.277801990509033,2358.0,2551.0,1691.0,4095.0,2649.0
4.277904033660889,2486.0,2489.0,1703.0,4095.0,671.0
4.282731056213379,2192.0,2303.0,1781.0,4095.0,742.0
4.2828309535980225,2427.0,2746.0,1790.0,4095.0,3538.0
4.28878116607666,2510.0,2722.0,1823.0,4095.0,582.0
4.288875102996826,2278.0,2704.0,1725.0,4095.0,747.0
4.294829845428467,2277.0,2114.0,612.0,881.0,3269.0
4.294929027557373,2487.0,2737.0,607.0,640.0,828.0
4.299775123596191,2544.0,2734.0,631.0,834.0,819.0
4.2998809814453125,2346.0,2651.0,631.0,917.0,2878.0
4.29996919631958,2451.0,2559.0,656.0,757.0,733.0
4.3057801723480225,1891.0,2518.0,688.0,869.0,683.0
4.305876016616821,2375.0,1857.0,1833.0,754.0,3251.0
4.310838222503662,2398.0,2641.0,1229.0,743.0,646.0
4.310935974121094,2523.0,2555.0,1298.0,880.0,703.0
4.316859006881714,2116.0,2465.0,1632.0,688.0,4095.0
4.316981077194214,2425.0,2318.0,1637.0,801.0,597.0
4.321753978729248,2547.0,2691.0,1680.0,806.0,541.0
4.321867227554321,2263.0,2383.0,1612.0,720.0,3046.0
4.327810049057007,2202.0,2379.0,595.0,871.0,598.0
4.328045845031738,2507.0,1866.0,597.0,683.0,551.0
4.332978963851929,2635.0,2711.0,602.0,811.0,3194.0
4.333081007003784,2352.0,2694.0,627.0,661.0,1261.0
4.338808059692383,2551.0,2642.0,626.0,736.0,811.0
4.338903903961182,1744.0,2559.0,646.0,874.0,1597.0
4.33899188041687,1683.0,2708.0,1619.0,674.0,2802.0
4.344897031784058,2427.0,2677.0,1522.0,790.0,560.0
4.344995975494385,2613.0,2594.0,1479.0,724.0,1242.0
4.349760055541992,2153.0,2521.0,1398.0,734.0,3275.0
4.349848031997681,2478.0,2421.0,1320.0,854.0,727.0
4.355838060379028,2608.0,1943.0,1404.0,813.0,720.0
4.355936050415039,2610.0,2594.0,1936.0,790.0,3696.0
4.360831022262573,2288.0,2496.0,1489.0,961.0,893.0
4.360918045043945,2558.0,2368.0,656.0,733.0,649.0
4.366793155670166,2640.0,2672.0,605.0,847.0,2529.0
4.366894960403442,2393.0,2723.0,626.0,671.0,2550.0
4.37185001373291,2587.0,2704.0,646.0,759.0,710.0
4.371953010559082,2559.0,2308.0,1360.0,944.0,739.0
4.377784967422485,2672.0,2744.0,1342.0,706.0,4095.0
4.377901077270508,2483.0,2752.0,1421.0,834.0,912.0
4.382749080657959,2619.0,2722.0,1359.0,645.0,487.0
4.382856130599976,1818.0,2699.0,1459.0,736.0,2786.0
4.388697862625122,2487.0,2607.0,1387.0,922.0,1808.0
4.388810157775879,2489.0,2775.0,1717.0,699.0,778.0
4.388911962509155,2629.0,2729.0,1682.0,816.0,1535.0
4.394906997680664,2080.0,2655.0,1745.0,631.0,3782.0
4.395010232925415,2518.0,2589.0,1802.0,752.0,669.0
4.399749040603638,2650.0,2437.0,1624.0,886.0,798.0
4.399851083755493,2256.0,1964.0,809.0,691.0,2435.0
4.405814170837402,2544.0,2606.0,808.0,810.0,2631.0
4.405908107757568,2519.0,2553.0,1104.0,961.0,675.0
4.410723924636841,2669.0,2435.0,995.0,731.0,2587.0
4.410815000534058,2278.0,2785.0,1138.0,870.0,2500.0
4.416811227798462,2627.0,2759.0,1126.0,685.0,669.0
4.416923999786377,2685.0,2751.0,1223.0,800.0,1008.0
4.421932220458984,2447.0,2711.0,1431.0,833.0,1385.0
4.4221351146698,2425.0,2775.0,1911.0,725.0,1565.0
4.430320978164673,2611.0,2737.0,1935.0,840.0,662.0
4.4304211139678955,2679.0,2706.0,1969.0,661.0,2433.0
4.433993101119995,2448.0,2625.0,1947.0,761.0,3280.0
4.434084892272949,2647.0,2559.0,1929.0,938.0,646.0
4.439995050430298,1985.0,2421.0,1583.0,848.0,597.0
4.4401092529296875,1801.0,2669.0,717.0,822.0,2541.0
4.440207004547119,2521.0,2559.0,781.0,639.0,2139.0
4.444818019866943,2667.0,2493.0,1088.0,752.0,622.0
4.44492506980896,2246.0,2277.0,1328.0,912.0,1565.0
4.449772119522095,2519.0,2751.0,1342.0,702.0,4095.0
4.449879169464111,2694.0,2733.0,1740.0,869.0,2928.0
4.455871105194092,2689.0,2463.0,1808.0,626.0,592.0
4.455986976623535,2351.0,1995.0,1702.0,752.0,2553.0
4.460985898971558,2599.0,2753.0,1785.0,910.0,2862.0
4.46130895614624,2701.0,2736.0,1765.0,702.0,635.0
4.466809988021851,2456.0,2702.0,1797.0,813.0,544.0
4.466913223266602,2655.0,2624.0,1968.0,943.0,683.0
4.471693277359009,2662.0,2735.0,595.0,752.0,2953.0
4.4717841148376465,2703.0,2711.0,634.0,880.0,649.0
4.477787017822266,2501.0,2669.0,656.0,697.0,771.0
4.477885961532593,2656.0,2559.0,682.0,815.0,3947.0
4.482664108276367,1927.0,2503.0,716.0,674.0,679.0
4.483251094818115,2553.0,2341.0,781.0,737.0,570.0
4.483464956283569,2546.0,2625.0,1517.0,859.0,1153.0
4.488866090774536,2690.0,2559.0,1647.0,671.0,4095.0
4.488955974578857,2255.0,2443.0,1603.0,794.0,620.0
4.495023012161255,2585.0,1919.0,1559.0,908.0,567.0
4.4951372146606445,2709.0,2768.0,1577.0,720.0,2822.0
4.500775098800659,2403.0,2734.0,1535.0,850.0,3344.0
4.5008790493011475,2384.0,2356.0,1080.0,665.0,591.0
4.506282091140747,2618.0,2704.0,622.0,755.0,543.0
4.506424903869629,2719.0,2746.0,609.0,934.0,4095.0
4.511042833328247,2470.0,2709.0,661.0,707.0,1671.0
4.511152029037476,2667.0,2661.0,845.0,844.0,563.0
4.517323017120361,2708.0,2586.0,834.0,656.0,2189.0
4.517647981643677,2529.0,2486.0,1824.0,874.0,2597.0
4.521942138671875,2491.0,2716.0,1456.0,928.0,599.0
4.522043943405151,2690.0,2634.0,1717.0,705.0,581.0
4.528124094009399,1959.0,2551.0,1724.0,815.0,2421.0
4.528223991394043,2544.0,2431.0,1746.0,640.0,4040.0
4.532986879348755,2690.0,1936.0,1862.0,746.0,883.0
4.5333452224731445,2304.0,2723.0,1088.0,895.0,628.0
4.53343391418457,2261.0,2544.0,1053.0,682.0,3134.0
4.538939952850342,2643.0,2469.0,976.0,815.0,3802.0
4.539039134979248,2725.0,2005.0,1256.0,624.0,579.0
4.545190095901489,2449.0,2768.0,1465.0,730.0,1581.0
4.545438051223755,2640.0,2736.0,1631.0,874.0,4095.0
4.551435232162476,2746.0,2703.0,735.0,808.0,4095.0
4.55397891998291,2724.0,2506.0,1599.0,763.0,637.0
4.555872201919556,2432.0,2753.0,1558.0,943.0,1589.0
4.555973052978516,2678.0,2702.0,1618.0,717.0,4095.0
4.560835838317871,2761.0,2672.0,1634.0,839.0,607.0
4.560935020446777,2521.0,2608.0,1736.0,654.0,528.0
4.566766977310181,2646.0,2514.0,1318.0,951.0,487.0
4.566864013671875,2690.0,2704.0,831.0,930.0,4095.0
4.571732044219971,1953.0,2665.0,829.0,695.0,679.0
4.571822881698608,2531.0,2587.0,775.0,832.0,567.0
4.577775955200195,2722.0,2487.0,779.0,636.0,4095.0
4.577879905700684,2318.0,2288.0,842.0,765.0,2439.0
4.577967882156372,2559.0,2723.0,880.0,917.0,553.0
4.58276891708374,2545.0,2524.0,1706.0,707.0,560.0
4.582864999771118,2769.0,2379.0,1803.0,817.0,4095.0
4.588867902755737,2379.0,2736.0,1834.0,644.0,2017.0
4.5889732837677,2591.0,2748.0,1874.0,754.0,550.0
4.594872951507568,2731.0,2705.0,1703.0,883.0,2101.0
4.594987154006958,2480.0,2641.0,1725.0,692.0,4095.0
4.59975790977478,2458.0,2736.0,622.0,803.0,2179.0
4.599853992462158,2674.0,2718.0,710.0,965.0,662.0
4.605700969696045,2749.0,2704.0,775.0,737.0,1429.0
4.605800151824951,2536.0,2608.0,977.0,869.0,4095.0
4.610882043838501,2687.0,2550.0,1102.0,678.0,672.0
4.6109819412231445,2030.0,2435.0,1239.0,786.0,570.0
4.616689920425415,2599.0,1968.0,851.0,896.0,709.0
4.616805076599121,2559.0,2608.0,1599.0,723.0,3496.0
4.621653079986572,2719.0,2549.0,1615.0,859.0,1819.0
4.6217429637908936,2273.0,2477.0,1626.0,688.0,656.0
4.627784013748169,2608.0,2231.0,1650.0,790.0,1980.0
4.627897024154663,2724.0,2731.0,1683.0,978.0,4095.0
4.628105163574219,2422.0,2727.0,1234.0,939.0,4095.0
4.632796049118042,2374.0,2384.0,605.0,843.0,698.0
4.632886171340942,2629.0,1873.0,606.0,659.0,1776.0
4.638749122619629,2723.0,2725.0,615.0,773.0,4095.0
4.638840198516846,2452.0,2701.0,651.0,955.0,735.0
4.644840955734253,2682.0,2634.0,730.0,711.0,635.0
4.6449480056762695,2731.0,2559.0,861.0,845.0,581.0
4.649869203567505,2714.0,2739.0,1488.0,627.0,4095.0
4.649993181228638,2466.0,2711.0,1651.0,752.0,1601.0
4.655787229537964,2663.0,2650.0,1616.0,902.0,681.0
4.655896902084351,2596.0,2559.0,1696.0,692.0,2583.0
4.6607818603515625,2559.0,2493.0,1566.0,801.0,3011.0
4.660892963409424,2689.0,2341.0,1527.0,618.0,4095.0
4.666701078414917,2700.0,2615.0,1779.0,737.0,847.0
4.6668031215667725,2077.0,2545.0,1840.0,882.0,1255.0
4.671708106994629,2559.0,2443.0,1680.0,677.0,4095.0
4.671803951263428,2710.0,2279.0,656.0,811.0,1347.0
4.671884059906006,2354.0,2741.0,622.0,634.0,721.0
4.677945852279663,2597.0,2718.0,595.0,736.0,2642.0
4.678042888641357,2607.0,2433.0,931.0,887.0,4095.0
4.682929992675781,2736.0,1883.0,1023.0,673.0,2480.0
4.683242082595825,2429.0,2733.0,1277.0,811.0,581.0
4.688754081726074,2660.0,2726.0,1353.0,776.0,2064.0
4.688853025436401,2756.0,2686.0,1525.0,733.0,4095.0
4.694861888885498,2512.0,2601.0,1603.0,863.0,775.0
4.694962024688721,2509.0,2736.0,1904.0,672.0,592.0
4.699819087982178,2699.0,2709.0,1843.0,774.0,1520.0
4.700124025344849,2752.0,2653.0,1745.0,966.0,4095.0
4.705900192260742,2555.0,2559.0,1719.0,723.0,906.0
4.706073045730591,2702.0,2481.0,1755.0,848.0,533.0
4.710824966430664,2145.0,2291.0,1803.0,656.0,3954.0
4.710937023162842,2032.0,2583.0,783.0,745.0,4095.0
4.71681809425354,2594.0,2530.0,749.0,923.0,689.0
4.716920852661133,2756.0,2380.0,765.0,710.0,569.0
4.721719264984131,2301.0,2416.0,867.0,831.0,2592.0
4.721825122833252,2619.0,2717.0,816.0,651.0,4095.0
4.721901178359985,2748.0,2707.0,922.0,752.0,755.0
4.727751970291138,2473.0,2690.0,1581.0,960.0,727.0
4.727844953536987,2430.0,2715.0,1689.0,698.0,2499.0
4.732712984085083,2678.0,2705.0,1686.0,811.0,4095.0
4.732802867889404,2785.0,2643.0,1748.0,630.0,615.0
4.738722085952759,2527.0,2618.0,1867.0,733.0,736.0
4.738815069198608,2727.0,2543.0,1892.0,906.0,4095.0
4.744965076446533,2741.0,2448.0,1819.0,638.0,3894.0
4.745058059692383,2781.0,2722.0,714.0,816.0,624.0
4.749760150909424,2559.0,2651.0,727.0,752.0,634.0
4.7498509883880615,2753.0,2541.0,697.0,743.0,4095.0
4.755817174911499,2099.0,2480.0,776.0,868.0,2597.0
4.75591516494751,2624.0,2305.0,784.0,681.0,602.0
4.7608091831207275,2767.0,2751.0,881.0,807.0,1987.0
4.760898113250732,2768.0,2463.0,1726.0,901.0,3312.0
4.76674485206604,2339.0,2343.0,1642.0,715.0,3930.0
4.766851902008057,2661.0,2692.0,1666.0,843.0,707.0
4.766945123672485,2782.0,2695.0,1680.0,684.0,1327.0
4.77185320854187,2451.0,2671.0,1787.0,782.0,4095.0
4.7719480991363525,2693.0,2639.0,1703.0,972.0,4095.0
4.777856111526489,2707.0,2715.0,699.0,720.0,749.0
4.777976989746094,2789.0,2727.0,913.0,828.0,1232.0
4.782912015914917,2544.0,2682.0,1063.0,655.0,4095.0
4.7830259799957275,2737.0,2620.0,1057.0,753.0,757.0
4.788888931274414,2802.0,2550.0,1055.0,941.0,615.0
4.788995981216431,2603.0,2439.0,887.0,715.0,3057.0
4.794811964035034,2305.0,2559.0,1275.0,822.0,2332.0
4.794926881790161,2730.0,2559.0,1670.0,660.0,3246.0
4.799774169921875,2018.0,2489.0,1776.0,747.0,528.0
4.799875020980835,2629.0,2367.0,1833.0,941.0,1936.0
4.805701971054077,2768.0,2704.0,1669.0,717.0,4095.0
4.805794954299927,2396.0,2719.0,1597.0,831.0,848.0
4.810812950134277,2669.0,2734.0,1734.0,672.0,3065.0
4.810904026031494,2641.0,1847.0,668.0,751.0,615.0
4.816734075546265,2771.0,2733.0,649.0,931.0,4095.0
4.816917181015015,2519.0,2694.0,693.0,711.0,3089.0
4.817896127700806,2722.0,2670.0,706.0,832.0,561.0
4.821774005889893,2798.0,2602.0,739.0,650.0,1235.0
4.821861982345581,2559.0,2499.0,608.0,665.0,589.0
4.827854871749878,2491.0,2697.0,1207.0,927.0,4095.0
4.827950954437256,2751.0,2650.0,1170.0,701.0,759.0
4.832755088806152,2224.0,2559.0,1311.0,817.0,607.0
4.8328468799591064,2591.0,2437.0,1689.0,640.0,3120.0
4.838690996170044,2748.0,2176.0,1790.0,733.0,4095.0
4.838788986206055,2325.0,2709.0,1841.0,950.0,4095.0
4.8448028564453125,2239.0,2530.0,1838.0,694.0,659.0
4.844909906387329,2614.0,2385.0,1664.0,810.0,1977.0
4.849699974060059,2750.0,2064.0,816.0,658.0,4095.0
4.849797010421753,2414.0,2742.0,607.0,749.0,640.0
4.855715036392212,2647.0,2718.0,578.0,872.0,650.0
4.855823040008545,2767.0,2677.0,595.0,688.0,511.0
4.860764026641846,2765.0,2757.0,1221.0,803.0,4016.0
4.860882043838501,2476.0,2736.0,1362.0,667.0,1840.0
4.860990047454834,2709.0,2750.0,1189.0,730.0,751.0
4.866853952407837,2792.0,2639.0,1130.0,893.0,2531.0
4.866957187652588,2537.0,2559.0,1132.0,688.0,4095.0
4.871717929840088,2729.0,2477.0,1138.0,813.0,4095.0
4.871811866760254,2723.0,2667.0,1642.0,970.0,566.0
4.877784013748169,2212.0,2606.0,1767.0,716.0,1391.0
4.8778839111328125,2557.0,2486.0,1807.0,846.0,4095.0
4.882705926895142,2723.0,2322.0,1883.0,672.0,2553.0
4.882791996002197,2243.0,2758.0,1838.0,775.0,541.0
4.888824224472046,2597.0,2745.0,1893.0,958.0,581.0
4.8889219760894775,2598.0,2412.0,847.0,721.0,3106.0
4.894816160202026,2716.0,1884.0,962.0,849.0,4095.0
4.894909143447876,2377.0,2774.0,1107.0,669.0,629.0
4.899684906005859,2624.0,2762.0,1168.0,768.0,822.0
4.899773120880127,2738.0,2715.0,1474.0,951.0,4095.0
4.905673027038574,2471.0,2608.0,1393.0,720.0,3168.0
4.905765056610107,2416.0,2768.0,1177.0,823.0,719.0
4.910841941833496,2643.0,2742.0,1264.0,648.0,569.0
4.910938024520874,2715.0,2662.0,1383.0,737.0,3765.0
4.9167320728302,2484.0,2559.0,1502.0,911.0,4095.0
4.916841983795166,2700.0,2508.0,1507.0,691.0,593.0
4.9169371128082275,2023.0,2320.0,1586.0,825.0,1153.0
4.921804189682007,2410.0,2656.0,688.0,630.0,1377.0
4.921905040740967,2506.0,2603.0,653.0,742.0,4095.0
4.92780613899231,2654.0,2487.0,720.0,880.0,1223.0
4.927915096282959,2173.0,1941.0,684.0,688.0,637.0
4.932793855667114,2506.0,2798.0,736.0,816.0,3399.0
4.932888984680176,2645.0,2785.0,743.0,640.0,3851.0
4.9387102127075195,2310.0,2736.0,1088.0,709.0,4095.0
4.93880295753479,2288.0,2832.0,1531.0,880.0,809.0
4.944926977157593,2559.0,2804.0,1616.0,682.0,1808.0
4.945023059844971,2657.0,2742.0,1520.0,802.0,4095.0
4.94980525970459,2403.0,2738.0,1447.0,766.0,1047.0
4.950094938278198,2624.0,2627.0,1420.0,711.0,735.0
4.955802917480469,2672.0,2587.0,1081.0,714.0,774.0
4.955895185470581,2784.0,2736.0,1885.0,687.0,3562.0
4.960791110992432,2559.0,2719.0,1767.0,800.0,4095.0
4.96089506149292,2768.0,2635.0,1328.0,823.0,617.0
4.9667439460754395,1955.0,2544.0,1241.0,730.0,778.0
4.966831922531128,2651.0,2430.0,609.0,867.0,4095.0
4.966922998428345,2827.0,2832.0,1398.0,725.0,2754.0
4.971782922744751,2900.0,2581.0,1352.0,802.0,1399.0
4.971879005432129,2461.0,2416.0,1318.0,729.0,592.0
4.977937936782837,2785.0,2800.0,1374.0,742.0,2722.0
4.978060245513916,2934.0,2816.0,1389.0,879.0,4095.0
4.982832908630371,2628.0,2759.0,1329.0,681.0,656.0
4.982936859130859,2841.0,2723.0,925.0,687.0,1527.0
4.988809108734131,2842.0,2800.0,1716.0,947.0,1399.0
4.988930940628052,2950.0,2763.0,1953.0,720.0,4095.0
4.994997024536133,2666.0,2752.0,1930.0,837.0,962.0
4.9952569007873535,2877.0,2672.0,1917.0,666.0,597.0
4.999821901321411,2943.0,2615.0,1922.0,752.0,3127.0
4.99992823600769,2739.0,2480.0,1871.0,789.0,1728.0
5.006024122238159,2825.0,2715.0,699.0,718.0,4095.0
5.006123065948486,2973.0,2672.0,743.0,830.0,763.0
5.011167049407959,2223.0,2615.0,738.0,637.0,1411.0
5.011266231536865,2879.0,2480.0,829.0,756.0,4095.0
5.016782999038696,3019.0,2559.0,784.0,935.0,1631.0
5.016907215118408,2658.0,2798.0,815.0,725.0,2875.0
5.016993045806885,2654.0,2559.0,1478.0,817.0,511.0
5.022722244262695,2858.0,1982.0,1555.0,630.0,4095.0
5.022826194763184,2991.0,2859.0,1575.0,753.0,3457.0
5.032909154891968,2718.0,2846.0,1667.0,912.0,754.0
5.033017873764038,2928.0,2800.0,1901.0,711.0,1002.0
5.033106088638306,2992.0,2735.0,1975.0,833.0,675.0
5.0331971645355225,2970.0,2894.0,1704.0,626.0,4095.0
5.038964033126831,2781.0,2877.0,659.0,752.0,646.0
5.039052248001099,2960.0,2826.0,603.0,887.0,533.0
5.044842004776001,2797.0,2735.0,591.0,702.0,3504.0
5.044951915740967,2829.0,2652.0,599.0,829.0,4095.0
5.0497400760650635,3003.0,2501.0,645.0,626.0,920.0
5.049844026565552,2545.0,2853.0,911.0,738.0,769.0
5.055765151977539,2742.0,2805.0,942.0,913.0,1221.0
5.055876016616821,3062.0,2703.0,939.0,702.0,4095.0
5.060972213745117,3313.0,2327.0,1058.0,819.0,1157.0
5.061084032058716,2971.0,3049.0,1137.0,635.0,576.0
5.061175107955933,3237.0,3014.0,1168.0,752.0,2177.0
5.06687593460083,3392.0,2985.0,1200.0,811.0,688.0
5.0669920444488525,3627.0,3024.0,1632.0,701.0,4095.0
5.071915149688721,3340.0,3046.0,1728.0,812.0,777.0
5.072160005569458,3555.0,2992.0,1778.0,627.0,615.0
5.077790975570679,3648.0,2933.0,2005.0,749.0,4095.0
5.077883958816528,3382.0,2926.0,1986.0,893.0,4095.0
5.082803010940552,3610.0,2813.0,866.0,833.0,4095.0
5.082892179489136,3499.0,2944.0,683.0,807.0,731.0
5.08882212638855,2779.0,2878.0,688.0,646.0,1062.0
5.088917016983032,3299.0,2823.0,691.0,740.0,4095.0
5.095557928085327,3478.0,2693.0,751.0,898.0,2385.0
5.096035957336426,3054.0,2231.0,703.0,685.0,683.0
5.100103139877319,3329.0,3025.0,708.0,825.0,649.0
5.101514101028442,3253.0,2825.0,1023.0,650.0,2559.0
5.10601806640625,3407.0,2689.0,1153.0,735.0,4095.0
5.106305122375488,3088.0,3102.0,1405.0,881.0,1050.0
5.1064841747283936,3271.0,3087.0,1477.0,674.0,511.0
5.11100697517395,3375.0,3042.0,1622.0,790.0,4095.0
5.111112117767334,3126.0,2993.0,1712.0,714.0,2625.0
5.117746114730835,3024.0,3071.0,1917.0,731.0,1967.0
5.1178529262542725,3226.0,3059.0,1933.0,850.0,580.0
5.121875047683716,2890.0,3021.0,1969.0,684.0,2157.0
5.121990919113159,3086.0,2945.0,1982.0,791.0,4095.0
5.127961874008179,3238.0,2842.0,1143.0,967.0,2207.0
5.128068923950195,2786.0,2715.0,615.0,731.0,4095.0
5.132758140563965,2591.0,2968.0,725.0,847.0,659.0
5.13284707069397,2958.0,2865.0,765.0,656.0,3088.0
5.138746023178101,3101.0,2734.0,849.0,778.0,4095.0
5.13886022567749,2754.0,2426.0,1251.0,926.0,683.0
5.144760847091675,2995.0,3024.0,1344.0,715.0,784.0
5.144870042800903,3098.0,3035.0,1510.0,842.0,4095.0
5.149696111679077,2995.0,2735.0,1618.0,673.0,4095.0
5.149811029434204,2685.0,3168.0,1694.0,805.0,4095.0
5.155765056610107,2943.0,3120.0,1842.0,779.0,735.0
5.155883073806763,3039.0,3194.0,1911.0,728.0,1349.0
5.160746097564697,2731.0,3071.0,1903.0,876.0,4095.0
5.1608521938323975,2937.0,3014.0,1743.0,683.0,2055.0
5.1666810512542725,2770.0,3239.0,639.0,778.0,3450.0
5.166780948638916,2195.0,3253.0,637.0,1033.0,591.0
5.166866064071655,2634.0,3198.0,675.0,720.0,2086.0
5.171850204467773,2778.0,3057.0,853.0,853.0,4095.0
5.172532081604004,2341.0,2863.0,876.0,663.0,1729.0
5.177806854248047,2671.0,3371.0,1119.0,719.0,811.0
5.177900075912476,2832.0,3390.0,851.0,817.0,622.0
5.182721138000488,2970.0,3051.0,1399.0,755.0,3328.0
5.182828187942505,2605.0,2647.0,1429.0,827.0,4095.0
5.188827037811279,2891.0,3433.0,1414.0,675.0,597.0
5.188921928405762,3015.0,3393.0,1431.0,742.0,870.0
5.19492506980896,2735.0,3342.0,1365.0,878.0,4095.0
5.1950318813323975,2958.0,3254.0,1514.0,970.0,2000.0
5.199836015701294,3071.0,3456.0,614.0,845.0,3558.0
5.1999430656433105,3155.0,3410.0,610.0,636.0,647.0
5.205772161483765,2928.0,3333.0,620.0,763.0,2290.0
5.205877065658569,3085.0,3244.0,629.0,912.0,4095.0
5.205973148345947,2294.0,3147.0,643.0,674.0,656.0
5.210896015167236,2959.0,2847.0,688.0,933.0,4095.0
5.211021900177002,2423.0,3274.0,1456.0,634.0,1094.0
5.2167580127716064,2512.0,3141.0,1468.0,738.0,4095.0
5.216866970062256,2069.0,2992.0,1447.0,890.0,3644.0
5.221806049346924,2275.0,3601.0,1309.0,699.0,703.0
5.2219250202178955,2370.0,3479.0,1350.0,757.0,1360.0
5.227795124053955,1866.0,3408.0,1421.0,677.0,685.0
5.2279040813446045,979.0,2899.0,2011.0,736.0,4095.0
5.23272705078125,1253.0,3510.0,2275.0,880.0,2655.0
5.2328290939331055,1324.0,3499.0,2160.0,682.0,525.0
5.2387001514434814,1001.0,3536.0,2017.0,815.0,2279.0
5.2387988567352295,1161.0,3374.0,1264.0,656.0,4095.0
5.244781970977783,1195.0,3231.0,886.0,752.0,4095.0
5.244877815246582,764.0,3600.0,1010.0,883.0,641.0
5.249768972396851,576.0,3559.0,1075.0,682.0,630.0
5.249861001968384,715.0,3433.0,1250.0,806.0,4095.0
5.255734205245972,510.0,3305.0,1201.0,621.0,4095.0
5.255824089050293,592.0,3017.0,1159.0,739.0,583.0
5.255902051925659,717.0,3739.0,1203.0,880.0,1568.0
5.260814905166626,587.0,3712.0,1165.0,622.0,591.0
5.260898113250732,505.0,3303.0,1705.0,795.0,4095.0
5.266836166381836,591.0,2815.0,1712.0,624.0,1857.0
5.26693320274353,718.0,3696.0,1829.0,750.0,560.0
5.271691083908081,550.0,3677.0,1851.0,938.0,2721.0
5.2717859745025635,604.0,3600.0,1856.0,687.0,4095.0
5.277799129486084,741.0,3448.0,1824.0,688.0,4095.0
5.2778918743133545,734.0,3719.0,755.0,786.0,657.0
5.282737970352173,529.0,3630.0,821.0,730.0,1594.0
5.2828381061553955,615.0,3523.0,825.0,863.0,4095.0
5.282928943634033,750.0,3442.0,890.0,710.0,699.0
5.288894176483154,557.0,3303.0,1107.0,785.0,568.0
5.289011001586914,659.0,3139.0,1183.0,978.0,2009.0
5.294864892959595,787.0,2656.0,765.0,948.0,651.0
5.294986009597778,839.0,3537.0,1722.0,816.0,4095.0
5.299800872802734,562.0,3311.0,1697.0,651.0,1515.0
5.299897909164429,671.0,2896.0,1658.0,754.0,767.0
5.305812120437622,613.0,3566.0,1729.0,930.0,2219.0
5.305907964706421,577.0,3506.0,1791.0,699.0,4095.0
5.3108110427856445,694.0,3549.0,1840.0,637.0,4095.0
5.310909986495972,705.0,3694.0,624.0,722.0,961.0
5.316879034042358,510.0,3630.0,611.0,719.0,525.0
5.317359924316406,590.0,3536.0,683.0,880.0,4095.0
5.317605018615723,711.0,3495.0,671.0,667.0,4095.0
5.321806907653809,511.0,3359.0,675.0,813.0,731.0
5.321907997131348,610.0,3270.0,713.0,752.0,625.0
5.331637144088745,707.0,3088.0,624.0,937.0,561.0
5.3317341804504395,729.0,3487.0,1863.0,854.0,4095.0
5.332801103591919,528.0,3397.0,1968.0,657.0,2737.0
5.332877159118652,608.0,3279.0,1957.0,774.0,614.0
5.338925123214722,734.0,2992.0,1921.0,973.0,1959.0
5.339034080505371,563.0,3706.0,1981.0,732.0,4095.0
5.344851970672607,656.0,3632.0,1954.0,882.0,2107.0
5.34496808052063,648.0,3141.0,687.0,647.0,4095.0
5.345058917999268,761.0,3332.0,689.0,729.0,741.0
5.349838018417358,577.0,3621.0,704.0,919.0,2390.0
5.349947929382324,703.0,3440.0,698.0,706.0,3838.0
5.355830192565918,529.0,3472.0,747.0,819.0,720.0
5.3559441566467285,586.0,3461.0,774.0,627.0,1786.0
5.361077070236206,688.0,3278.0,2006.0,883.0,1088.0
5.361185073852539,702.0,3472.0,1638.0,883.0,2217.0
5.36681604385376,505.0,3344.0,1857.0,682.0,1802.0
5.366926908493042,612.0,3241.0,1866.0,799.0,1535.0
5.37175989151001,743.0,3183.0,1814.0,634.0,2234.0
5.371860027313232,557.0,2763.0,1604.0,739.0,2661.0
5.377747058868408,640.0,3557.0,1648.0,917.0,1584.0
5.377853155136108,827.0,3280.0,647.0,670.0,1127.0
5.377928972244263,1069.0,3154.0,592.0,786.0,993.0
5.382843971252441,677.0,3024.0,598.0,956.0,1925.0
5.382929086685181,941.0,3539.0,594.0,723.0,2704.0
5.388776063919067,1098.0,3483.0,616.0,855.0,4095.0
5.388864040374756,723.0,3419.0,626.0,667.0,4095.0
5.394876956939697,1040.0,3547.0,1407.0,827.0,2663.0
5.394975185394287,928.0,3504.0,957.0,938.0,648.0
5.399800062179565,1083.0,3511.0,1343.0,704.0,592.0
5.399891138076782,722.0,3387.0,1398.0,828.0,2085.0
5.4057700634002686,969.0,3280.0,1663.0,640.0,4095.0
5.405863046646118,560.0,3147.0,1791.0,742.0,2551.0
5.41084098815918,769.0,2651.0,1195.0,866.0,2712.0
5.410951137542725,751.0,3408.0,1591.0,708.0,686.0
5.4110400676727295,979.0,3216.0,1531.0,818.0,3813.0
5.416815996170044,583.0,3051.0,1708.0,594.0,4095.0
5.416924953460693,817.0,3536.0,1770.0,746.0,713.0
5.4217848777771,1040.0,3510.0,1797.0,848.0,2608.0
5.421894073486328,624.0,3465.0,1841.0,802.0,1803.0
5.427775144577026,603.0,2899.0,1088.0,824.0,2094.0
5.427884101867676,799.0,3509.0,1159.0,686.0,4095.0
5.43280291557312,994.0,3478.0,1108.0,786.0,1964.0
5.432909250259399,642.0,3443.0,1047.0,864.0,2659.0
5.438742160797119,838.0,3355.0,965.0,663.0,2736.0
5.438838243484497,1021.0,3253.0,1009.0,784.0,2018.0
5.444754123687744,976.0,3479.0,1594.0,1009.0,1609.0
5.444860935211182,676.0,3376.0,1632.0,714.0,2695.0
5.449673175811768,880.0,3332.0,1653.0,906.0,2430.0
5.450336217880249,1063.0,3241.0,1611.0,663.0,1313.0
5.450609922409058,739.0,3041.0,1589.0,782.0,1232.0
5.455780029296875,982.0,3541.0,1649.0,928.0,2086.0
5.45587420463562,1195.0,3333.0,1314.0,702.0,1516.0
5.460880994796753,1258.0,3158.0,751.0,816.0,1088.0
5.460978984832764,1056.0,2903.0,609.0,587.0,944.0
5.466811895370483,1264.0,3555.0,611.0,752.0,1361.0
5.466899156570435,605.0,3525.0,640.0,903.0,1989.0
5.471743106842041,1059.0,3454.0,655.0,688.0,4095.0
5.471839189529419,1278.0,3376.0,1463.0,846.0,3239.0
5.4778430461883545,1136.0,3502.0,1139.0,629.0,928.0
5.477943181991577,672.0,3455.0,1259.0,703.0,592.0
5.482742071151733,925.0,3444.0,1347.0,880.0,1072.0
5.482836008071899,1047.0,3341.0,1517.0,701.0,4095.0
5.488736152648926,681.0,3248.0,1586.0,785.0,4095.0
5.488850116729736,942.0,3095.0,1626.0,914.0,2046.0
5.4947350025177,784.0,3392.0,1613.0,736.0,4095.0
5.494838237762451,977.0,3248.0,1700.0,855.0,994.0
5.494926929473877,637.0,3110.0,1744.0,677.0,569.0
5.499701023101807,799.0,2945.0,666.0,751.0,2105.0
5.499789237976074,955.0,3534.0,624.0,698.0,4095.0
5.505743980407715,688.0,3546.0,622.0,713.0,1724.0
5.505841016769409,604.0,3265.0,1365.0,809.0,567.0
5.510724067687988,777.0,2931.0,1325.0,642.0,4095.0
5.510807037353516,927.0,3600.0,1424.0,766.0,4095.0
5.516823053359985,685.0,3575.0,1347.0,937.0,565.0
5.516922950744629,830.0,3530.0,1293.0,705.0,2544.0
5.521772146224976,547.0,3417.0,1502.0,834.0,2679.0
5.521862030029297,687.0,3322.0,1145.0,822.0,1183.0
5.527788162231445,727.0,3451.0,2003.0,741.0,2709.0
5.527895212173462,986.0,3387.0,1987.0,882.0,2711.0
5.527981996536255,590.0,3319.0,1936.0,688.0,2689.0
5.532742023468018,833.0,3184.0,1823.0,801.0,1917.0
5.532834053039551,1055.0,2768.0,1787.0,624.0,881.0
5.53870701789856,683.0,3551.0,1887.0,850.0,2895.0
5.538800001144409,738.0,3203.0,1022.0,885.0,2587.0
5.54486608505249,1138.0,2999.0,1051.0,670.0,1424.0
5.544985055923462,1327.0,3457.0,1110.0,818.0,1383.0
5.549830913543701,972.0,3485.0,915.0,618.0,2375.0
5.549936056137085,1312.0,3433.0,1094.0,733.0,3664.0
5.55578088760376,1399.0,3361.0,1181.0,867.0,1117.0
5.555906057357788,1535.0,3465.0,1585.0,663.0,1700.0
5.560973882675171,1274.0,3429.0,1586.0,762.0,2407.0
5.561091899871826,1570.0,3374.0,1649.0,946.0,3459.0
5.566704034805298,1612.0,3281.0,1675.0,719.0,3479.0
5.56680703163147,1379.0,3188.0,1661.0,846.0,2108.0
5.571657180786133,1572.0,3024.0,1586.0,879.0,727.0
5.571748971939087,1648.0,3285.0,631.0,752.0,800.0
5.577773094177246,799.0,3203.0,630.0,912.0,4095.0
5.57787299156189,1522.0,3104.0,612.0,710.0,4095.0
5.577953100204468,1681.0,2943.0,654.0,831.0,3888.0
5.582705020904541,1155.0,3408.0,663.0,639.0,912.0
5.582795143127441,1581.0,3367.0,663.0,749.0,2006.0
5.588802099227905,1616.0,2976.0,1246.0,906.0,4095.0
5.588897228240967,1764.0,2506.0,1094.0,676.0,4095.0
5.594809055328369,1362.0,3346.0,1205.0,811.0,779.0
5.5949132442474365,1665.0,3327.0,1403.0,624.0,1114.0
5.599753141403198,1801.0,3274.0,1517.0,722.0,4095.0
5.599845886230469,1472.0,3164.0,1558.0,880.0,1586.0
5.605763912200928,1501.0,3302.0,1723.0,688.0,4095.0
5.605858087539673,1779.0,3261.0,1805.0,795.0,813.0
5.610828161239624,1877.0,3165.0,1827.0,636.0,2948.0
5.610945224761963,1616.0,3109.0,1890.0,727.0,2077.0
5.616823196411133,1838.0,2992.0,1895.0,879.0,2838.0
5.616918087005615,976.0,2717.0,1878.0,680.0,2340.0
5.621826887130737,1918.0,3122.0,801.0,816.0,1494.0
5.621933221817017,1712.0,3040.0,805.0,623.0,2711.0
5.627754211425781,1871.0,2876.0,975.0,746.0,2977.0
5.627856016159058,1275.0,3283.0,1222.0,905.0,2179.0
5.627940893173218,1761.0,3271.0,1278.0,681.0,810.0
5.632786989212036,1936.0,3213.0,1437.0,816.0,1478.0
5.632879972457886,1535.0,3231.0,993.0,861.0,2472.0
5.638746023178101,1569.0,3268.0,1567.0,737.0,1394.0
5.638850927352905,1875.0,3263.0,1521.0,885.0,1307.0
5.644790172576904,2011.0,3200.0,1623.0,685.0,1684.0
5.64488410949707,1703.0,3105.0,1718.0,795.0,2501.0
5.64971923828125,1947.0,3034.0,1739.0,643.0,2988.0
5.649807929992676,1965.0,3190.0,620.0,733.0,1766.0
5.655725955963135,2047.0,3121.0,623.0,857.0,3339.0
5.655821084976196,1791.0,3033.0,635.0,677.0,2503.0
5.660778045654297,2011.0,2931.0,647.0,791.0,656.0
5.6608641147613525,1182.0,2650.0,688.0,674.0,625.0
5.666710138320923,1874.0,3217.0,978.0,736.0,1498.0
5.666808843612671,2031.0,3204.0,1584.0,953.0,2003.0
5.671671152114868,2143.0,2768.0,1456.0,663.0,3787.0
5.671764135360718,1572.0,3209.0,1449.0,757.0,730.0
5.6777801513671875,2007.0,3189.0,1393.0,951.0,718.0
5.677886009216309,2170.0,3155.0,1403.0,714.0,1647.0
5.682664155960083,1810.0,3091.0,1590.0,847.0,4095.0
5.68276309967041,2095.0,3013.0,1615.0,652.0,615.0
5.682861089706421,2143.0,3158.0,683.0,759.0,4095.0
5.688874006271362,2245.0,3107.0,667.0,944.0,2405.0
5.688987970352173,1945.0,2987.0,709.0,705.0,511.0
5.694850921630859,2167.0,2952.0,722.0,841.0,4095.0
5.694962024688721,2244.0,2806.0,738.0,647.0,2095.0
5.699696063995361,2038.0,3101.0,819.0,753.0,1813.0
5.6997950077056885,2031.0,2978.0,1585.0,912.0,2910.0
5.705698251724243,2231.0,2898.0,1679.0,687.0,4095.0
5.705796957015991,1328.0,2671.0,1679.0,815.0,1900.0
5.710831880569458,2096.0,3152.0,1535.0,653.0,2636.0
5.710925102233887,2227.0,3152.0,1559.0,737.0,2432.0
5.71683406829834,1803.0,3116.0,1554.0,659.0,1504.0
5.7169530391693115,1725.0,2292.0,651.0,699.0,2094.0
5.721769094467163,2115.0,3124.0,761.0,804.0,2685.0
5.721860885620117,2253.0,3120.0,730.0,622.0,2234.0
5.727708101272583,1915.0,3084.0,747.0,751.0,1735.0
5.727819204330444,2181.0,2992.0,797.0,883.0,849.0
5.7279040813446045,2256.0,2933.0,818.0,687.0,1667.0
5.732813119888306,2277.0,3071.0,1498.0,801.0,2030.0
5.732909202575684,1973.0,3039.0,1510.0,650.0,1844.0
5.738787889480591,2221.0,2975.0,1535.0,733.0,727.0
5.738879203796387,2274.0,2874.0,1494.0,874.0,653.0
5.7448890209198,2044.0,2766.0,1475.0,688.0,644.0
5.745000123977661,2233.0,2439.0,1565.0,811.0,2875.0
5.749921083450317,2254.0,2917.0,1776.0,638.0,644.0
5.750038146972656,1359.0,2815.0,1802.0,747.0,624.0
5.755869150161743,2126.0,2603.0,1830.0,912.0,808.0
5.755975008010864,2279.0,3057.0,1927.0,718.0,4095.0
5.7609429359436035,1853.0,3044.0,1800.0,818.0,4095.0
5.761069059371948,2153.0,3014.0,1376.0,660.0,3155.0
5.766826152801514,2160.0,3002.0,779.0,749.0,587.0
5.7669219970703125,2307.0,2999.0,862.0,895.0,528.0
5.771874904632568,1968.0,2970.0,1010.0,688.0,3633.0
5.772000074386597,2229.0,2887.0,1215.0,804.0,4095.0
5.77773904800415,2304.0,2845.0,1527.0,626.0,1555.0
5.777831077575684,2097.0,2753.0,1527.0,736.0,743.0
5.782695055007935,2271.0,2962.0,1120.0,656.0,533.0
5.7832348346710205,2272.0,2832.0,1761.0,688.0,4095.0
5.783501148223877,1504.0,2727.0,1828.0,787.0,2847.0
5.7888829708099365,2143.0,2632.0,1872.0,784.0,837.0
5.788982152938843,2295.0,2752.0,1936.0,724.0,3708.0
5.794846057891846,1811.0,2960.0,2028.0,862.0,2445.0
5.7949378490448,2171.0,2606.0,595.0,657.0,554.0
5.799746990203857,2154.0,2437.0,777.0,767.0,4095.0
5.799844026565552,2302.0,2937.0,704.0,942.0,1730.0
5.8057098388671875,1921.0,2870.0,692.0,716.0,2827.0
5.805804252624512,2198.0,2877.0,737.0,835.0,2296.0
5.810807228088379,2320.0,2791.0,754.0,639.0,1665.0
5.810914039611816,2018.0,2754.0,864.0,709.0,2832.0
5.8167829513549805,2009.0,2890.0,1535.0,923.0,2311.0
5.816888093948364,2275.0,2817.0,1535.0,708.0,2154.0
5.821765899658203,2324.0,2741.0,1352.0,819.0,1383.0
5.821883916854858,2107.0,2715.0,1349.0,643.0,1860.0
5.82778000831604,2287.0,2491.0,1421.0,752.0,3626.0
5.827885866165161,1686.0,2879.0,689.0,634.0,1985.0
5.83273983001709,2327.0,2715.0,657.0,699.0,1456.0
5.832839012145996,2128.0,2559.0,606.0,805.0,1851.0
5.83292293548584,2301.0,2351.0,624.0,625.0,1968.0
5.838748931884766,1635.0,2897.0,599.0,738.0,4095.0
5.8388519287109375,2177.0,2867.0,611.0,898.0,3414.0
5.844813108444214,2318.0,2840.0,629.0,683.0,2097.0
5.84490704536438,2319.0,2879.0,1136.0,798.0,722.0
5.84971809387207,1872.0,2861.0,1452.0,752.0,776.0
5.8498101234436035,2210.0,2844.0,1362.0,725.0,758.0
5.855771064758301,2325.0,2832.0,1309.0,879.0,2764.0
5.855865955352783,2011.0,2703.0,1285.0,656.0,4095.0
5.860790014266968,2269.0,2645.0,1312.0,796.0,853.0
5.860878944396973,2235.0,2807.0,1883.0,958.0,494.0
5.866793155670166,2357.0,2737.0,1851.0,720.0,4095.0
5.866894006729126,2064.0,2674.0,1805.0,849.0,4095.0
5.871692180633545,2288.0,2598.0,1870.0,655.0,1155.0
5.871789932250977,2353.0,2137.0,1762.0,754.0,1263.0
5.877819061279297,2143.0,2891.0,1756.0,940.0,2193.0
5.87792706489563,2107.0,2559.0,613.0,699.0,4095.0
5.882821083068848,2307.0,2384.0,651.0,827.0,965.0
5.882922172546387,2352.0,2860.0,682.0,651.0,1442.0
5.8830180168151855,2147.0,2841.0,720.0,738.0,4095.0
5.888930082321167,2320.0,2805.0,721.0,931.0,2143.0
5.8890461921691895,1627.0,2714.0,721.0,703.0,2719.0
5.894809007644653,2191.0,2643.0,608.0,688.0,4095.0
5.894920110702515,2171.0,2829.0,1397.0,652.0,1686.0
5.8998401165008545,2320.0,2786.0,1470.0,750.0,2748.0
5.899941921234131,1857.0,2695.0,1580.0,920.0,2853.0
5.905811071395874,2173.0,2608.0,1699.0,686.0,1733.0
5.90591287612915,2335.0,2464.0,1663.0,816.0,1310.0
5.91079306602478,2271.0,2666.0,1831.0,646.0,2710.0
5.910889148712158,1917.0,2683.0,1803.0,744.0,2381.0
5.916985034942627,2208.0,2597.0,1805.0,894.0,1639.0
5.917333126068115,2320.0,2423.0,1820.0,688.0,1830.0
5.921947002410889,2032.0,2832.0,1360.0,801.0,2374.0
5.922533988952637,2262.0,2785.0,667.0,627.0,679.0
5.928196907043457,2336.0,2164.0,603.0,713.0,1530.0
5.9285500049591064,2269.0,2384.0,1006.0,866.0,2010.0
5.932816982269287,2030.0,2815.0,1023.0,666.0,974.0
5.9330079555511475,2222.0,2787.0,938.0,800.0,1381.0
5.938733816146851,1613.0,2768.0,1109.0,742.0,1055.0
5.938836097717285,2098.0,2707.0,976.0,722.0,927.0
5.938982009887695,2270.0,2463.0,608.0,662.0,2047.0
5.94483208656311,2294.0,2768.0,1793.0,682.0,4095.0
5.944952964782715,1663.0,2735.0,1750.0,775.0,3177.0
5.949924945831299,2182.0,2661.0,1809.0,969.0,719.0
5.950042009353638,2337.0,2599.0,1840.0,725.0,619.0
5.957013130187988,1949.0,2434.0,1799.0,851.0,2681.0
5.957939147949219,2225.0,2254.0,909.0,762.0,1354.0
5.960896015167236,2242.0,2630.0,757.0,796.0,4095.0
5.9611852169036865,2386.0,2558.0,761.0,704.0,1321.0
5.967672109603882,2065.0,2393.0,693.0,737.0,757.0
5.967839002609253,2340.0,2786.0,784.0,881.0,2235.0
5.971853256225586,2427.0,2783.0,842.0,667.0,4095.0
5.972031116485596,2198.0,2755.0,930.0,838.0,4095.0
5.977797985076904,2192.0,1927.0,1506.0,636.0,859.0
5.978071928024292,2404.0,2784.0,1498.0,739.0,2411.0
5.982827186584473,2448.0,2759.0,1535.0,890.0,4095.0
5.982926845550537,2257.0,2727.0,1604.0,689.0,2054.0
5.988740921020508,2427.0,2635.0,1664.0,810.0,2877.0
5.988844156265259,1807.0,2587.0,1685.0,877.0,588.0
5.988923072814941,1570.0,2745.0,647.0,725.0,4095.0
5.997185230255127,2304.0,2689.0,656.0,864.0,2023.0
5.997441053390503,2435.0,2619.0,686.0,672.0,2302.0
6.000011205673218,2027.0,2531.0,671.0,806.0,2196.0
6.000258207321167,2341.0,2320.0,718.0,769.0,1435.0
6.009515047073364,2476.0,2783.0,691.0,734.0,2064.0
6.009677171707153,2483.0,2588.0,1245.0,859.0,2624.0
6.012608051300049,2158.0,2475.0,1520.0,662.0,2176.0
6.012856960296631,2385.0,2128.0,1607.0,763.0,2042.0
6.019628047943115,2478.0,2766.0,1696.0,944.0,568.0
6.019834041595459,2257.0,2751.0,1668.0,712.0,565.0
6.029913902282715,2453.0,2719.0,1642.0,853.0,1481.0
6.0300140380859375,2618.0,1883.0,599.0,649.0,940.0
6.031738996505737,2674.0,2755.0,630.0,755.0,1051.0
6.03183388710022,2477.0,2734.0,627.0,938.0,987.0
6.032940149307251,2681.0,2704.0,646.0,706.0,1152.0
6.033030033111572,2079.0,2608.0,677.0,839.0,2908.0
6.033303260803223,2557.0,2527.0,679.0,654.0,4095.0
6.039623975753784,2707.0,2725.0,1284.0,822.0,2356.0
6.03997015953064,2752.0,2697.0,977.0,941.0,613.0
6.04603910446167,2393.0,2593.0,1095.0,715.0,501.0
6.046138048171997,2641.0,2467.0,1203.0,838.0,3411.0
6.051298141479492,2761.0,2187.0,1264.0,655.0,4095.0
6.051401138305664,2482.0,2761.0,1439.0,753.0,2557.0
6.056066274642944,2707.0,2719.0,1441.0,887.0,4095.0
6.0562169551849365,2715.0,2355.0,1821.0,720.0,759.0
6.060806035995483,2787.0,2751.0,1807.0,834.0,1217.0
6.0609049797058105,2559.0,2757.0,1823.0,653.0,4095.0
6.066863059997559,2742.0,2719.0,1725.0,735.0,2642.0
6.066965103149414,1938.0,2656.0,1739.0,931.0,1904.0
6.0746331214904785,2627.0,2295.0,1231.0,794.0,602.0
6.074731111526489,2621.0,2747.0,689.0,826.0,4095.0
6.07913613319397,2768.0,2697.0,757.0,654.0,4022.0
6.079478025436401,2335.0,2619.0,752.0,752.0,1960.0
6.082816123962402,2649.0,2539.0,720.0,889.0,2671.0
6.08440089225769,2802.0,2383.0,759.0,702.0,2498.0
6.088734149932861,2454.0,2333.0,1535.0,853.0,1391.0
6.088832139968872,2399.0,2559.0,1343.0,657.0,2230.0
6.088913917541504,2658.0,2452.0,1364.0,721.0,2638.0
6.094872951507568,2786.0,2245.0,1341.0,938.0,2481.0
6.094976186752319,2512.0,2738.0,1341.0,694.0,1692.0
6.099826097488403,2717.0,2719.0,1584.0,832.0,2077.0
6.099920988082886,2764.0,2704.0,1743.0,622.0,2819.0
6.105848073959351,2793.0,1872.0,1744.0,752.0,2461.0
6.1059348583221436,2559.0,2735.0,604.0,938.0,1779.0
6.110935211181641,2765.0,2726.0,611.0,701.0,947.0
6.111051082611084,1952.0,2688.0,614.0,803.0,2350.0
6.116777181625366,2613.0,2607.0,656.0,655.0,4095.0
6.116879940032959,2731.0,2499.0,676.0,663.0,1600.0
6.1217732429504395,2778.0,2699.0,995.0,928.0,1223.0
6.1218860149383545,2320.0,2621.0,1098.0,675.0,2057.0
6.127827167510986,2670.0,2558.0,1243.0,823.0,3539.0
6.127940893173218,2805.0,2434.0,1367.0,606.0,4095.0
6.132695198059082,2480.0,2231.0,1479.0,745.0,1319.0
6.1327900886535645,2736.0,2730.0,1482.0,686.0,658.0
6.13866925239563,2690.0,2485.0,1766.0,691.0,489.0
6.138765096664429,2766.0,2326.0,1751.0,829.0,2997.0
6.144811153411865,2537.0,2688.0,714.0,624.0,4095.0
6.144909143447876,2720.0,2715.0,627.0,767.0,4095.0
